Time,Amplitude
0.0,0.12471739922430335
0.008001977750309024,0.11682146017851737
0.016003955500618047,0.1250687722399321
0.02400593325092707,0.11558428749974371
0.032007911001236095,0.1230481786543477
0.04000988875154512,0.1138977289282968
0.04801186650185414,0.12302710527473297
0.056013844252163165,0.11694714146145632
0.06401582200247219,0.13048588413200807
0.07201779975278122,0.12993034651050503
0.08001977750309024,0.14975516483335094
0.08802175525339925,0.15577319541914253
0.09602373300370828,0.18191754477123329
0.10402571075401731,0.19342096118690338
0.11202768850432633,0.2236652033525576
0.12002966625463535,0.2373943927113487
0.12803164400494438,0.2676286508670759
0.1360336217552534,0.2788987756332318
0.14403559950556244,0.30420409699509077
0.15203757725587144,0.3082412428161606
0.16003955500618047,0.32437533298587556
0.1680415327564895,0.3178296143800285
0.1760435105067985,0.3226386324340429
0.18404548825710754,0.3047707211650564
0.19204746600741657,0.2990423538354144
0.2000494437577256,0.2721605736911872
0.20805142150803463,0.2595961178066396
0.21605339925834363,0.22855299642162447
0.22405537700865266,0.2148180888234451
0.2320573547589617,0.1856833928582879
0.2400593325092707,0.176804671597168
0.24806131025957973,0.1551119821363634
0.25606328800988876,0.1557142962416041
0.2640652657601978,0.1448320698432754
0.2720672435105068,0.15677681695168713
0.28006922126081585,0.15692608229225996
0.2880711990111249,0.17878922454629106
0.29607317676143385,0.18702463290700552
0.3040751545117429,0.21458143904875882
0.3120771322620519,0.22573815188716
0.32007911001236095,0.2532920356996669
0.32808108776267,0.26158462259135945
0.336083065512979,0.2837022505814132
0.34408504326328804,0.2844518592161696
0.352087021013597,0.2975404802512165
0.36008899876390604,0.2884749692421622
0.3680909765142151,0.2917034982623103
0.3760929542645241,0.27343175687268023
0.38409493201483313,0.26873029131436754
0.39209690976514217,0.24428054401872332
0.4000988875154512,0.23547089012914527
0.4081008652657602,0.20910136962223422
0.41610284301606926,0.20050187240555897
0.42410482076637823,0.17622922673193647
0.43210679851668726,0.1712396318406805
0.4401087762669963,0.15160445189716837
0.4481107540173053,0.1517564647567679
0.45611273176761435,0.13723418900867804
0.4641147095179234,0.14200258803691576
0.4721166872682324,0.13121621718413018
0.4801186650185414,0.13859670765597387
0.4881206427688504,0.129189640906219
0.49612262051915945,0.13677010849718774
0.5041245982694685,0.12656254003444997
0.5121265760197775,0.1326457815410877
0.5201285537700865,0.12061100024270661
0.5281305315203956,0.12494874422035243
0.5361325092707045,0.11163507829629228
0.5441344870210136,0.11550063562738071
0.5521364647713226,0.1027534764429131
0.5601384425216317,0.10834747076727905
0.5681404202719407,0.09846499834391689
0.5761423980222498,0.10791249798663152
0.5841443757725587,0.10259147100259965
0.5921463535228677,0.11694870347322167
0.6001483312731768,0.11645806835710437
0.6081503090234858,0.1351419068009939
0.6161522867737949,0.1380711339400837
0.6241542645241038,0.15895677891219306
0.6321562422744129,0.16265764337900393
0.6401582200247219,0.1828237832578365
0.6481601977750309,0.1843865114317703
0.65616217552534,0.20122536444310143
0.6641641532756489,0.1986102770379441
0.672166131025958,0.2108644367797081
0.680168108776267,0.20373512525227488
0.6881700865265761,0.2120367508924589
0.696172064276885,0.2019428566821028
0.704174042027194,0.20861222407977992
0.7121760197775031,0.19841395686829683
0.7201779975278121,0.20655787166792006
0.7281799752781212,0.19927999075728214
0.7361819530284301,0.21150940000480295
0.7441839307787392,0.20904684440246082
0.7521859085290482,0.2262993669300427
0.7601878862793573,0.22847757516697076
0.7681898640296663,0.24941656147897284
0.7761918417799752,0.25380003647755445
0.7841938195302843,0.27506568012248345
0.7921957972805933,0.277642902824486
0.8001977750309024,0.2949202838183065
0.8081997527812114,0.29146614072718857
0.8162017305315205,0.3010227693561585
0.8242037082818294,0.2886720134530412
0.8322056860321385,0.28882075554675096
0.8402076637824475,0.2672802907097325
0.8482096415327565,0.25922051192425105
0.8562116192830656,0.23115016837529756
0.8642135970333745,0.2188391358173213
0.8722155747836836,0.18921028025516512
0.8802175525339926,0.1782523716749885
0.8882195302843017,0.15285481961414454
0.8962215080346106,0.14874977387017693
0.9042234857849196,0.13233088463874063
0.9122254635352287,0.1386659242453659
0.9202274412855377,0.13333606791526278
0.9282294190358468,0.15054859529508266
0.9362313967861557,0.15501528352154365
0.9442333745364648,0.18017227432542932
0.9522353522867738,0.19009112729798153
0.9602373300370828,0.21778757330752344
0.9682393077873919,0.22713539068551775
0.9762412855377008,0.2512264967081817
0.9842432632880099,0.25424443561937526
0.9922452410383189,0.269832031855742
1.000247218788628,0.2628828057040764
1.008249196538937,0.26788159683627827
1.016251174289246,0.2505882736358824
1.024253152039555,0.24633822692508806
1.0322551297898641,0.22161774869759462
1.040257107540173,0.21233757189570618
1.048259085290482,0.1853244656439586
1.0562610630407911,0.17660278551494238
1.0642630407911002,0.15284326707244775
1.072265018541409,0.14969714361743913
1.0802669962917182,0.13324500721188032
1.0882689740420273,0.138422069474137
1.0962709517923361,0.13049666566213372
1.1042729295426452,0.14360584854494832
1.1122749072929543,0.1422694107108096
1.1202768850432634,0.16002915098239037
1.1282788627935723,0.16097864800665326
1.1362808405438813,0.17847643476215455
1.1442828182941904,0.1766532830518513
1.1522847960444995,0.18915733591257494
1.1602867737948084,0.18059584101263185
1.1682887515451175,0.1852732258706267
1.1762907292954266,0.16853459074207172
1.1842927070457354,0.16547451717244155
1.1922946847960445,0.14217128159754516
1.2002966625463536,0.13436865584082727
1.2082986402966627,0.10861481704418882
1.2163006180469715,0.10094265104140508
1.2243025957972806,0.07794669957413711
1.2323045735475897,0.07550120531171103
1.2403065512978986,0.059815318452456696
1.2483085290482077,0.06622759242018107
1.2563105067985167,0.06027186676177967
1.2643124845488258,0.07657265372305704
1.2723144622991347,0.07993479529217923
1.2803164400494438,0.10434168342630719
1.2883184177997529,0.11405826995479153
1.2963203955500617,0.14271175195563487
1.3043223733003708,0.15437850662312227
1.31232435105068,0.18271293100186298
1.320326328800989,0.19198125926522647
1.3283283065512979,0.21620360236968378
1.336330284301607,0.22010390438192745
1.344332262051916,0.23824277023995138
1.352334239802225,0.23587031023467425
1.360336217552534,0.2480480199006608
1.368338195302843,0.24041306057360634
1.3763401730531521,0.2483082172044249
1.384342150803461,0.23748384420839047
1.39234412855377,0.24326779301062845
1.4003461063040792,0.23123805182015106
1.408348084054388,0.2364646149776062
1.4163500618046971,0.22417922278454858
1.4243520395550062,0.22910849727613639
1.4323540173053153,0.2161497963014504
1.4403559950556242,0.2197945564997408
1.4483579728059333,0.20479796095581093
1.4563599505562423,0.20567134584551944
1.4643619283065514,0.187316584269617
1.4723639060568603,0.18455464691721568
1.4803658838071694,0.1626901311580055
1.4883678615574785,0.15704453136880397
1.4963698393077873,0.13342471435156233
1.5043718170580964,0.12764401247695664
1.5123737948084055,0.1058878488386647
1.5203757725587146,0.10422817002947382
1.5283777503090235,0.08890266318697877
1.5363797280593325,0.09584982968048748
1.5443817058096416,0.0909363812630833
1.5523836835599505,0.10955288696210116
1.5603856613102596,0.116829680982279
1.5683876390605687,0.14733113937664113
1.5763896168108777,0.16529092340509663
1.5843915945611866,0.20442651734063483
1.5923935723114957,0.22820268549816808
1.6003955500618048,0.2697623826035461
1.6083975278121136,0.2922005349001558
1.6163995055624227,0.3285819046177184
1.6244014833127318,0.3421854333690301
1.632403461063041,0.3665635453804278
1.6404054388133498,0.3657085888789274
1.6484074165636589,0.37410770872612353
1.656409394313968,0.35679111352556236
1.664411372064277,0.3493527910552998
1.672413349814586,0.31786308590925505
1.680415327564895,0.2988529321700758
1.688417305315204,0.2591028489670498
1.696419283065513,0.23561754579700842
1.704421260815822,0.19532952955389377
1.712423238566131,0.17511152365643326
1.7204252163164402,0.1414460391416067
1.728427194066749,0.13052750902841362
1.7364291718170581,0.10794445060742033
1.7444311495673672,0.10890964809463735
1.752433127317676,0.09798027796444546
1.7604351050679852,0.10942739335514398
1.7684370828182943,0.1069888920578631
1.7764390605686033,0.12435838773907504
1.7844410383189122,0.1249368762682137
1.7924430160692213,0.1423968389970948
1.8004449938195304,0.1403812309440829
1.8084469715698392,0.15309003081442882
1.8164489493201483,0.14487596817996484
1.8244509270704574,0.15081091683833364
1.8324529048207665,0.1361464604957029
1.8404548825710754,0.13684303836319944
1.8484568603213845,0.11889349459536738
1.8564588380716935,0.11882974108595419
1.8644608158220024,0.10293820726225275
1.8724627935723115,0.10778566069176646
1.8804647713226206,0.09937599166669928
1.8884667490729297,0.11374909721426343
1.8964687268232385,0.11613130180689989
1.9044707045735476,0.14165438280350023
1.9124726823238567,0.1545359965060082
1.9204746600741656,0.18894230339013426
1.9284766378244746,0.20820558647825887
1.9364786155747837,0.2458218229232646
1.9444805933250928,0.2646805506468477
1.9524825710754017,0.29815949771486644
1.9604845488257108,0.309318076540561
1.9684865265760199,0.33203522364204313
1.976488504326329,0.33011112671721676
1.9844904820766378,0.33839747079076343
1.992492459826947,0.3217646122442081
2.000494437577256,0.3161944790711318
2.008496415327565,0.28759801753652353
2.016498393077874,0.2728726847077442
2.024500370828183,0.23858791710040508
2.032502348578492,0.22204035033111802
2.040504326328801,0.18985173053429028
2.04850630407911,0.17907475096683045
2.056508281829419,0.1557589055859521
2.0645102595797282,0.15616125584484278
2.072512237330037,0.1453273914904767
2.080514215080346,0.15844412111693745
2.0885161928306553,0.1594579834305284
2.096518170580964,0.18257697085594454
2.1045201483312734,0.19091668726358466
2.1125221260815823,0.21812630843753977
2.120524103831891,0.2270238732398719
2.1285260815822005,0.25129891029329426
2.1365280593325093,0.25408341153935987
2.144530037082818,0.2696777317900047
2.1525320148331275,0.26200753909436525
2.1605339925834364,0.2663324898102198
2.1685359703337452,0.24756026078299953
2.1765379480840545,0.24192428263526342
2.1845399258343634,0.21515624413106887
2.1925419035846723,0.20415019291031353
2.2005438813349816,0.17502386796544359
2.2085458590852904,0.16481078786792702
2.2165478368355997,0.13945828084382575
2.2245498145859086,0.13559838798443993
2.2325517923362175,0.11853062712208079
2.240553770086527,0.1241137553509345
2.2485557478368356,0.11676447900106232
2.2565577255871445,0.13148888307008308
2.264559703337454,0.131900849841537
2.2725616810877627,0.15238285609774563
2.2805636588380716,0.15609978281278467
2.288565636588381,0.1772542825943319
2.2965676143386897,0.17905294854330803
2.304569592088999,0.19601016632430557
2.312571569839308,0.19182069431270396
2.3205735475896168,0.2016715314031953
2.328575525339926,0.18998848764657914
2.336577503090235,0.19273568753628945
2.344579480840544,0.17502842600039806
2.352581458590853,0.17342692482602967
2.360583436341162,0.15343452369002888
2.368585414091471,0.15181633915470305
2.37658739184178,0.13402095240283562
2.384589369592089,0.13656708996675126
2.392591347342398,0.12443171276728486
2.400593325092707,0.13354449201278623
2.408595302843016,0.12817416597891806
2.4165972805933253,0.14355295476042862
2.424599258343634,0.14327053561744627
2.432601236093943,0.1620252761983069
2.4406032138442524,0.16300954285744446
2.4486051915945612,0.1807610062637093
2.45660716934487,0.17850356067878712
2.4646091470951794,0.19105847375365442
2.4726111248454883,0.18209886843118855
2.480613102595797,0.1870818411655679
2.4886150803461065,0.1703833015513521
2.4966170580964153,0.1682276343248883
2.504619035846724,0.14569026998008305
2.5126210135970335,0.13962522675953726
2.5206229913473424,0.11554751507501718
2.5286249690976517,0.1105823082953085
2.5366269468479605,0.09025924346768217
2.5446289245982694,0.09152167622178596
2.5526309023485787,0.07947310098669438
2.5606328800988876,0.09048587894946329
2.5686348578491964,0.08893370274208115
2.5766368355995057,0.11042631062076608
2.5846388133498146,0.11854372161577637
2.5926407911001235,0.14820164828673463
2.6006427688504328,0.16237985891503368
2.6086447466007416,0.19560020695382543
2.616646724351051,0.21062132274318407
2.62464870210136,0.2419954511521981
2.6326506798516687,0.25269173512869514
2.640652657601978,0.2776947016250223
2.648654635352287,0.280521827079973
2.6566566131025957,0.2968362800778381
2.664658590852905,0.2908395611908464
2.672660568603214,0.29889006570401294
2.6806625463535227,0.2857725968021814
2.688664524103832,0.28833541224480247
2.696666501854141,0.27165768404818574
2.70466847960445,0.2727334249899938
2.712670457354759,0.2565688114667143
2.720672435105068,0.25994647135199667
2.7286744128553773,0.24748360249079687
2.736676390605686,0.2555033016427958
2.744678368355995,0.2480725819576983
2.7526803461063043,0.2609917982008888
2.760682323856613,0.25781380432964446
2.768684301606922,0.2739441496845296
2.7766862793572313,0.2726254443029234
2.78468825710754,0.2891265925471457
2.792690234857849,0.2866660489262337
2.8006922126081584,0.30066283034249175
2.8086941903584672,0.29457203547078836
2.816696168108776,0.3041751270633186
2.8246981458590854,0.29331026980430347
2.8327001236093943,0.2981919495007748
2.8407021013597036,0.2830333269392029
2.8487040791100124,0.28440048225809506
2.8567060568603213,0.2667382915995167
2.8647080346106306,0.26677662363286764
2.8727100123609395,0.24897992787525478
2.8807119901112483,0.2500273113391518
2.8887139678615577,0.234206256357833
2.8967159456118665,0.23798451159482856
2.9047179233621754,0.22536071397393964
2.9127199011124847,0.23253565345931462
2.9207218788627936,0.2232206386667198
2.928723856613103,0.2334034888314868
2.9367258343634117,0.2266042887704244
2.9447278121137206,0.23872241461004434
2.95272978986403,0.2332233076118238
2.9607317676143388,0.2460503902491128
2.9687337453646476,0.2407277535100147
2.976735723114957,0.2533255433364518
2.984737700865266,0.2474710196165906
2.9927396786155747,0.2593654773158596
3.000741656365884,0.2527064317635346
3.008743634116193,0.26376405904548406
3.0167456118665017,0.25622567701396287
3.024747589616811,0.26634563885779583
3.03274956736712,0.25772608583601475
3.040751545117429,0.26655355930129176
3.048753522867738,0.2563259170971598
3.056755500618047,0.26318186629281615
3.064757478368356,0.2505746726946015
3.072759456118665,0.25469038525753596
3.080761433868974,0.2390585526698737
3.0887634116192833,0.24004571290859117
3.096765389369592,0.22138645325680598
3.104767367119901,0.2197350513948211
3.1127693448702103,0.19910027127255991
3.120771322620519,0.19644199878423393
3.1287733003708285,0.1760007701893919
3.1367752781211373,0.17493683859927422
3.144777255871446,0.15755801827799612
3.1527792336217555,0.16101194882083353
3.1607812113720644,0.1494285429257943
3.1687831891223732,0.1596869276660805
3.1767851668726825,0.15549629488895494
3.1847871446229914,0.17326237298850977
3.1927891223733003,0.17612916615578422
3.2007911001236096,0.19996370423959353
3.2087930778739184,0.20737063204706035
3.2167950556242273,0.23379986088729282
3.2247970333745366,0.2415294578048244
3.2327990111248455,0.26588340906039887
3.2408009888751548,0.2691615781438033
3.2488029666254636,0.2869404609290661
3.2568049443757725,0.2819184586046733
3.264806922126082,0.2902669298484805
3.2728088998763907,0.2753591161587349
3.2808108776266995,0.2741447563137841
3.288812855377009,0.2507424966460333
3.2968148331273177,0.24282749901225417
3.3048168108776266,0.21508668911201986
3.312818788627936,0.2056299956974227
3.3208207663782447,0.17932881940250234
3.328822744128554,0.17428049163939083
3.336824721878863,0.1550654643614342
3.344826699629172,0.15930440790703074
3.352828677379481,0.15087316182359628
3.36083065512979,0.1665886744037509
3.368832632880099,0.16941091948141926
3.376834610630408,0.1952781528550822
3.384836588380717,0.2063046509667131
3.392838566131026,0.23776248640664127
3.400840543881335,0.2512597366766664
3.408842521631644,0.2818429334139874
3.416844499381953,0.2911205281395822
3.424846477132262,0.31444525872389667
3.432848454882571,0.3139390518590622
3.4408504326328804,0.3257130547688817
3.4488524103831892,0.3127559676323025
3.456854388133498,0.31216216448674955
3.4648563658838074,0.28786394431215434
3.4728583436341163,0.27786091817769476
3.480860321384425,0.24680174523679813
3.4888622991347344,0.2332332181962673
3.4968642768850433,0.20206032285882866
3.504866254635352,0.19185274855792459
3.5128682323856615,0.16722578366442156
3.5208702101359703,0.16624887178574208
3.528872187886279,0.1527894079739303
3.5368741656365885,0.16406024168846017
3.5448761433868974,0.16295415114867445
3.5528781211372067,0.18574760147916197
3.5608800988875156,0.19443049418443953
3.5688820766378244,0.22455872704637406
3.5768840543881337,0.23755960159846098
3.5848860321384426,0.26870411679149403
3.5928880098887515,0.279351209665709
3.6008899876390608,0.3049993090907202
3.6088919653893696,0.3074278588545736
3.6168939431396785,0.32278989004530306
3.624895920889988,0.3136181422067527
3.6328978986402967,0.31693501312549177
3.640899876390606,0.2961095524075222
3.648901854140915,0.2889827326048072
3.6569038318912237,0.2595838846342636
3.664905809641533,0.24629029953344603
3.672907787391842,0.21342973299932808
3.6809097651421507,0.19950692387992716
3.68891174289246,0.16872685806998033
3.696913720642769,0.15932281630607525
3.7049156983930778,0.1350311112941024
3.712917676143387,0.13354585839145647
3.720919653893696,0.11796207236150788
3.728921631644005,0.12536550754604123
3.736923609394314,0.11824275385363449
3.744925587144623,0.13319653006521756
3.7529275648949323,0.1323053432346316
3.760929542645241,0.15194179735350888
3.76893152039555,0.1540558356441469
3.7769334981458593,0.17506994149636482
3.784935475896168,0.1770612719477174
3.792937453646477,0.19671352973989226
3.8009394313967864,0.1963830364997259
3.8089414091470952,0.2130995192974371
3.816943386897404,0.20951503742324987
3.8249453646477134,0.2229597813949079
3.8329473423980223,0.21628526237573556
3.840949320148331,0.2269911880389289
3.8489512978986404,0.21798089214994146
3.8569532756489493,0.22677801631313485
3.8649552533992586,0.2162108267994495
3.8729572311495675,0.22373241351320647
3.8809592088998763,0.2120425134985958
3.8889611866501856,0.21851485719633493
3.8969631644004945,0.20575412760875256
3.9049651421508034,0.21112338395741226
3.9129671199011127,0.1972245205069992
3.9209690976514215,0.20151182903969825
3.9289710754017304,0.1866805451010808
3.9369730531520397,0.19035227881155947
3.9449750309023486,0.1753593385536975
3.952977008652658,0.1794939174633599
3.9609789864029668,0.1656844075095334
3.9689809641532756,0.17181017666392112
3.976982941903585,0.16077638056276555
3.984984919653894,0.1704056897281443
3.9929868974042027,0.16342583389034973
4.000988875154512,0.17745472559214903
4.008990852904821,0.17491685501384005
4.01699283065513,0.19313669694615715
4.024994808405439,0.19419519677083996
4.032996786155748,0.2151386133716517
4.040998763906057,0.21777650841561347
4.049000741656366,0.23900223058597259
4.057002719406675,0.24052285665431986
4.065004697156984,0.2592776471280264
4.073006674907293,0.25708260986486253
4.081008652657602,0.2711283758405031
4.089010630407911,0.26352059190359844
4.09701260815822,0.2718407954743568
4.105014585908529,0.25856939514040306
4.113016563658838,0.2617015787645825
4.121018541409147,0.24405019908697287
4.1290205191594564,0.24392039348193717
4.137022496909765,0.22430130002645496
4.145024474660074,0.22361351331586535
4.1530264524103835,0.20480683232307578
4.161028430160692,0.20619997877181367
4.169030407911001,0.19050340011243347
4.1770323856613105,0.1957688462858016
4.185034363411619,0.18435095908181726
4.193036341161928,0.19397607242357787
4.201038318912238,0.18664596574034512
4.209040296662547,0.19982379099170716
4.217042274412855,0.19527192413277597
4.225044252163165,0.21034261089137848
4.233046229913474,0.20673367632459366
4.241048207663782,0.22186622757623117
4.249050185414092,0.21754014594357546
4.257052163164401,0.2313829180035558
4.265054140914709,0.22539193881042904
4.273056118665019,0.23744647891016202
4.281058096415328,0.22973378239419706
4.289060074165636,0.2403271324416706
4.297062051915946,0.23150357338263977
4.305064029666255,0.24140067003717497
4.313066007416563,0.2322411300256398
4.321067985166873,0.24208535520099242
4.329069962917182,0.2329793448532759
4.3370719406674905,0.24281772519456432
4.3450739184178,0.23342562946821593
4.353075896168109,0.24253850441085792
4.3610778739184175,0.23181842670200642
4.369079851668727,0.23894593691061253
4.377081829419036,0.22556052432443963
4.3850838071693445,0.2294504336636437
4.393085784919654,0.21240013972394595
4.401087762669963,0.21246028784302237
4.4090897404202725,0.19168475143364336
4.417091718170581,0.18846626329233837
4.42509369592089,0.16515238105933433
4.4330956736711995,0.16044180054125584
4.441097651421508,0.13687978538909426
4.449099629171817,0.13332207967141924
4.4571016069221265,0.11232180072421047
4.465103584672435,0.11267767580532294
4.473105562422744,0.09673157276583404
4.481107540173054,0.10302157377367654
4.489109517923362,0.09350929565101725
4.497111495673671,0.10635441997181014
4.505113473423981,0.10308351751534046
4.513115451174289,0.12149234506998263
4.521117428924598,0.12275567648971733
4.529119406674908,0.14445072071049533
4.537121384425216,0.14759501427708924
4.545123362175525,0.16977358518090446
4.553125339925835,0.1720840119741216
4.561127317676143,0.19234558470894808
4.569129295426452,0.1919303029025627
4.577131273176762,0.20903606203863223
4.58513325092707,0.20538992865296735
4.5931352286773794,0.21957803741992063
4.601137206427689,0.2136202320478607
4.609139184177998,0.22636298724836731
4.6171411619283065,0.21993770910263916
4.625143139678616,0.23323449706967533
4.633145117428925,0.22826507608421545
4.6411470951792335,0.24374020903101493
4.649149072929543,0.2413590402422618
4.657151050679852,0.2595094777199134
4.6651530284301606,0.2594982489000185
4.67315500618047,0.2793827966707773
4.681156983930779,0.28014329814785
4.689158961681088,0.29964053466184726
4.697160939431397,0.29871736309430724
4.705162917181706,0.31526490860867584
4.713164894932015,0.3102317000522022
4.721166872682324,0.32177499992514574
4.729168850432633,0.3111545866232247
4.737170828182942,0.3169492553261983
4.745172805933251,0.30081961781801614
4.75317478368356,0.30178067411468995
4.761176761433869,0.28183132138156985
4.769178739184178,0.2802883976264047
4.777180716934487,0.2592948850910731
4.785182694684796,0.25823352984401166
4.793184672435105,0.23913560526821379
4.801186650185414,0.24119829672607113
4.809188627935723,0.22611757675533822
4.817190605686032,0.23273064056228418
4.825192583436341,0.22228921126942397
4.833194561186651,0.23323742116620097
4.841196538936959,0.22642835386958848
4.849198516687268,0.24003292307195134
4.857200494437578,0.23468771589242227
4.865202472187886,0.24851720241311206
4.8732044499381955,0.24219054168409174
4.881206427688505,0.2540328873961517
4.889208405438813,0.24496674617038156
4.8972103831891225,0.2536907915284487
4.905212360939432,0.2414885036668714
4.91321433868974,0.24746386637685314
4.9212163164400495,0.23321376568367977
4.929218294190359,0.2381251570070202
4.937220271940667,0.2239229124762441
4.945222249690977,0.23004677587449698
4.953224227441286,0.21809725509560432
4.961226205191594,0.2273176806612031
4.969228182941904,0.21896312272593674
4.977230160692213,0.23191036392252673
4.985232138442521,0.2269676329382129
4.993234116192831,0.2426240854674056
5.00123609394314,0.23930395453228798
5.009238071693448,0.2552513096016333
5.017240049443758,0.2507162866809325
5.025242027194067,0.2639563789860303
5.033244004944376,0.2553307299051081
5.041245982694685,0.2633915119348345
5.049247960444994,0.24885933125403428
5.057249938195303,0.2507803988305687
5.065251915945612,0.2303631643711431
5.073253893695921,0.22718833294278581
5.08125587144623,0.20290142613593756
5.089257849196539,0.1974791336476564
5.097259826946848,0.1727892372127264
5.105261804697157,0.1689322253291992
5.113263782447466,0.14769267710789652
5.121265760197775,0.1489837252638338
5.129267737948084,0.13421780702293015
5.137269715698393,0.1428801349718175
5.145271693448702,0.13584018123790656
5.1532736711990115,0.1520692647094336
5.16127564894932,0.1518996230470892
5.169277626699629,0.17388463269611362
5.1772796044499385,0.17799524487240964
5.185281582200247,0.20260543017880148
5.193283559950556,0.20760252646513497
5.2012855377008655,0.23147124793115975
5.209287515451174,0.23429012369867416
5.217289493201483,0.2548883529180309
5.225291470951793,0.25370668467607876
5.233293448702102,0.2700122031142066
5.24129542645241,0.2646163840108206
5.24929740420272,0.27714944736694014
5.257299381953029,0.2686454200447403
5.265301359703337,0.27889362759997566
5.273303337453647,0.26891377546090783
5.281305315203956,0.2784112429524649
5.289307292954264,0.26816925398680425
5.297309270704574,0.2776332028188598
5.305311248454883,0.2672401480185487
5.313313226205191,0.2761457767923704
5.321315203955501,0.2644961575923914
5.32931718170581,0.2712934595513516
5.3373191594561185,0.25659694971239033
5.345321137206428,0.2595069759148288
5.353323114956737,0.24026863503699736
5.3613250927070455,0.23834444726857074
5.369327070457355,0.2143905446713063
5.377329048207664,0.20839088593864805
5.3853310259579725,0.18148415681578262
5.393333003708282,0.17414596955048056
5.401334981458591,0.14786232390890078
5.4093369592089,0.14336633085838132
5.417338936959209,0.12217472260710928
5.425340914709518,0.12490482200945029
5.4333428924598275,0.11270640944900312
5.441344870210136,0.12569547811814982
5.449346847960445,0.12431838981867588
5.4573488257107545,0.14793674502749712
5.465350803461063,0.1561517129066542
5.473352781211372,0.18755910228554892
5.481354758961682,0.20104156044511373
5.48935673671199,0.2346895291368185
5.497358714462299,0.24704448149176667
5.505360692212609,0.27615803469930417
5.513362669962917,0.280749288207851
5.521364647713226,0.29935949556971764
5.529366625463536,0.2913784340497494
5.537368603213844,0.29625154578813123
5.545370580964153,0.2743376483472493
5.553372558714463,0.26614021495019563
5.561374536464771,0.23297970899412396
5.56937651421508,0.21624609938873726
5.57737849196539,0.17789679205778564
5.585380469715698,0.15975499078330826
5.593382447466007,0.12386908198702287
5.601384425216317,0.11190143969315672
5.609386402966625,0.08539836456879578
5.6173883807169345,0.0853191574931839
5.625390358467244,0.07226235708959802
5.633392336217552,0.08617315860021132
5.6413943139678615,0.08655250896242783
5.649396291718171,0.11235594710658252
5.65739826946848,0.12218346567578725
5.6654002472187885,0.1543530535749764
5.673402224969098,0.16704092747455257
5.681404202719407,0.19848875399137933
5.689406180469716,0.2070457330087974
5.697408158220025,0.2314581702240728
5.705410135970334,0.2307633515911665
5.713412113720643,0.24461751983035848
5.721414091470952,0.23300715849985357
5.729416069221261,0.23659401875480696
5.73741804697157,0.216236938336733
5.745420024721879,0.21336253211132528
5.753422002472188,0.1893204265500713
5.761423980222497,0.1858151046463943
5.769425957972806,0.1641390316831654
5.777427935723115,0.165715519677561
5.785429913473424,0.15126009203335783
5.793431891223733,0.16148107791512453
5.801433868974042,0.15620768080008568
5.809435846724351,0.17527548239342552
5.81743782447466,0.17763428035242898
5.825439802224969,0.2024167151815471
5.833441779975278,0.20800904278414828
5.841443757725587,0.2332729736800142
5.849445735475896,0.2365387521213889
5.857447713226206,0.25693298570200485
5.865449690976514,0.2532441443676836
5.8734516687268234,0.26530878231642196
5.881453646477133,0.25270810503405033
5.889455624227441,0.25618164090804263
5.8974576019777505,0.2361367791757253
5.90545957972806,0.2340866728409279
5.913461557478368,0.21098431570486378
5.9214635352286775,0.20871035249641115
5.929465512978987,0.18826875361096762
5.937467490729295,0.19136996538299783
5.945469468479605,0.17853746651082494
5.953471446229914,0.19083526612640253
5.961473423980222,0.18792922779456422
5.969475401730532,0.2099940399147044
5.977477379480841,0.21575209373268542
5.985479357231149,0.24456865258092023
5.993481334981459,0.2544617812193266
6.001483312731768,0.2843649219350684
6.009485290482076,0.29207431385510274
6.017487268232386,0.3166360409290382
6.025489245982695,0.3161821675508883
6.033491223733003,0.3303924171790503
6.041493201483313,0.31817227743946863
6.049495179233622,0.32015023484960625
6.057497156983931,0.2961696301560598
6.06549913473424,0.2878069725318853
6.073501112484549,0.25567776268103065
6.081503090234858,0.24199110097115395
6.089505067985167,0.2076979548771905
6.097507045735476,0.19512154259564218
6.105509023485785,0.16499461115212333
6.113511001236094,0.15921536024969402
6.121512978986403,0.13782186343958877
6.129514956736712,0.1419160188704069
6.137516934487021,0.1306078056442136
6.14551891223733,0.14412755670032187
6.1535208899876395,0.14074582600853802
6.161522867737948,0.1600650772296413
6.169524845488257,0.1598920981577034
6.1775268232385665,0.179674320730874
6.185528800988875,0.17728113347056595
6.193530778739184,0.19253659305974255
6.2015327564894935,0.18386085683431583
6.209534734239802,0.19185467748432503
6.217536711990111,0.1757642194731031
6.225538689740421,0.17709206726771118
6.233540667490729,0.15587356800485055
6.241542645241038,0.15431724576072883
6.249544622991348,0.13290972579394117
6.257546600741657,0.13411551509842748
6.265548578491965,0.11835037619173368
6.273550556242275,0.12778696769343223
6.281552533992584,0.12224534702097802
6.289554511742892,0.14315130172018145
6.297556489493202,0.14938453996491782
6.305558467243511,0.1814207284184367
6.313560444993819,0.1971558708300009
6.321562422744129,0.23623675309352116
6.329564400494438,0.2558517957189712
6.3375663782447464,0.2952269898188121
6.345568355995056,0.3113489183838241
6.353570333745365,0.34358383010079163
6.3615723114956735,0.34928589835079055
6.369574289245983,0.3684922918312827
6.377576266996292,0.35937312013529205
6.3855782447466005,0.3629665037373879
6.39358022249691,0.33844448591005405
6.401582200247219,0.327874963792287
6.4095841779975276,0.2913036646208154
6.417586155747837,0.27155627241570385
6.425588133498146,0.229161379646732
6.433590111248455,0.2072271642481947
6.441592088998764,0.16624570618547713
6.449594066749073,0.1490872749093233
6.4575960444993825,0.11572773574024373
6.465598022249691,0.10839753543279342
6.4736,0.0862613609836032
6.4816019777503096,0.0907410382697888
6.489603955500618,0.08015515215531094
6.497605933250927,0.09521203537958846
6.505607911001237,0.0935945306596983
6.513609888751545,0.1155992105793883
6.521611866501854,0.11863562675979109
6.529613844252164,0.14297753751900566
6.537615822002472,0.14614184029722796
6.545617799752781,0.16871979541148893
6.553619777503091,0.16860897533655822
6.561621755253399,0.1869055610422998
6.569623733003708,0.18197928576736597
6.577625710754018,0.19542639074706034
6.585627688504326,0.18599611524852075
6.593629666254635,0.19562077728429714
6.601631644004945,0.18321601000941734
6.609633621755253,0.19081366330127977
6.6176355995055625,0.17726207881258732
6.625637577255872,0.184486250853583
6.63363955500618,0.17110814612137032
6.6416415327564895,0.1788480407932287
6.649643510506799,0.16607132905601463
6.657645488257108,0.1743298064820669
6.6656474660074165,0.16182626469058012
6.673649443757726,0.17008088550967396
6.681651421508035,0.1572942181986052
6.689653399258344,0.16511709153484316
6.697655377008653,0.1518903896691906
6.705657354758962,0.15949944136009298
6.713659332509271,0.14647597958169414
6.72166131025958,0.1549285872489007
6.729663288009889,0.14350537706408967
6.737665265760198,0.15440637945345018
6.745667243510507,0.14621946189680587
6.753669221260816,0.161032753139702
6.761671199011125,0.15716549124062737
6.769673176761434,0.17640374000910702
6.777675154511743,0.17664844391801293
6.785677132262052,0.19929358706048747
6.793679110012361,0.20180528244532542
6.80168108776267,0.2252494987518618
6.809683065512979,0.22680154573102568
6.817685043263288,0.24741495880078868
6.825687021013597,0.24424563155846968
6.833688998763906,0.25844021943132833
6.841690976514215,0.24744912138215355
6.849692954264524,0.2529068934257988
6.857694932014833,0.23280721017724174
6.865696909765142,0.2294516733005669
6.873698887515451,0.20146845645800548
6.881700865265761,0.19181841442621753
6.889702843016069,0.15965449276169613
6.8977048207663785,0.14839091242924213
6.905706798516688,0.11741728783993903
6.913708776266996,0.11025200858455342
6.9217107540173055,0.08613747589001773
6.929712731767615,0.088307276304054
6.937714709517923,0.07549268263382442
6.9457166872682325,0.09033188708956492
6.953718665018542,0.09081165711961198
6.96172064276885,0.1188362756675061
6.96972262051916,0.1316142129922907
6.977724598269469,0.17038822188670855
6.985726576019777,0.19175994103646568
6.993728553770087,0.23656636547514698
7.001730531520396,0.261121174239741
7.009732509270704,0.30621194853383327
7.017734487021014,0.328230311993086
7.025736464771323,0.3682621855832248
7.033738442521631,0.3830814340986027
7.041740420271941,0.4143123848501049
7.04974239802225,0.4192722225347552
7.057744375772558,0.44019812676021375
7.065746353522868,0.4349381420746245
7.073748331273177,0.4462498155585916
7.081750309023486,0.43235256722840626
7.089752286773795,0.436315654291145
7.097754264524104,0.41649279299537045
7.105756242274413,0.4160212304375177
7.113758220024722,0.39315937124723965
7.121760197775031,0.3909149681053936
7.12976217552534,0.36729949287444175
7.137764153275649,0.3650939982127996
7.145766131025958,0.34202307113673713
7.1537681087762675,0.34065566132385167
7.161770086526576,0.31849092644502497
7.169772064276885,0.31798248199211343
7.1777740420271945,0.29652205954315036
7.185776019777503,0.2965721840326721
7.193777997527812,0.2755332438287668
7.2017799752781215,0.2759722698332959
7.20978195302843,0.25536425699218845
7.217783930778739,0.25641186638716923
7.225785908529049,0.23666006724622998
7.233787886279357,0.23890998616308634
7.241789864029666,0.2207136306151139
7.249791841779976,0.22489130302810043
7.257793819530284,0.2089172654690212
7.265795797280593,0.21555177386719326
7.273797775030903,0.20212763225754388
7.281799752781212,0.21130461896084288
7.28980173053152,0.20026165616718875
7.29780370828183,0.2115748612213899
7.305805686032139,0.2023129630821433
7.313807663782447,0.21503336164431616
7.321809641532757,0.2067725868304431
7.329811619283066,0.2201505714838246
7.337813597033374,0.21224589681627612
7.345815574783684,0.22579878327803687
7.353817552533993,0.21796349358270897
7.3618195302843015,0.2316052185181214
7.369821508034611,0.22392822789703606
7.37782348578492,0.2378689162217991
7.3858254635352285,0.23060547866100656
7.393827441285538,0.24505586850570854
7.401829419035847,0.2382798352920611
7.4098313967861555,0.2530935829580109
7.417833374536465,0.24637563619468567
7.425835352286774,0.2608080612275122
7.433837330037083,0.2530932676970021
7.441839307787392,0.265825234525893
7.449841285537701,0.25561647536279003
7.45784326328801,0.2650941301177277
7.465845241038319,0.2509278942358084
7.473847218788628,0.25593841872789835
7.4818491965389375,0.2370113824986062
7.489851174289246,0.23730244144577314
7.497853152039555,0.21402224969071937
7.505855129789865,0.21072479156649912
7.513857107540173,0.18495358129078493
7.521859085290482,0.18060804743327719
7.529861063040792,0.15545073964055336
7.5378630407911,0.15355695958808374
7.545865018541409,0.13269331866577264
7.553866996291719,0.13686535420153403
7.561868974042027,0.12358547364890501
7.569870951792336,0.13653839557318295
7.577872929542646,0.1327585187329368
7.585874907292954,0.15543168827237738
7.593876885043263,0.1609974068073445
7.601878862793573,0.1920978661329092
7.609880840543881,0.20461053240471283
7.6178828182941905,0.24074398751493076
7.6258847960445,0.2559944706361561
7.633886773794808,0.2923765692468473
7.6418887515451175,0.3052872095338087
7.649890729295427,0.3368513977687241
7.657892707045735,0.3426722101035861
7.6658946847960445,0.3652701260839799
7.673896662546354,0.36069930226329805
7.681898640296662,0.37206397753374204
7.689900618046972,0.35598900671226835
7.697902595797281,0.3562065788256235
7.70590457354759,0.3298799805454691
7.713906551297899,0.3212651639813428
7.721908529048208,0.28789738316823266
7.729910506798517,0.27434134670301225
7.737912484548826,0.2382574026438253
7.745914462299135,0.22425838495769687
7.753916440049444,0.1898734986086721
7.761918417799753,0.1795285586364639
7.769920395550062,0.15042169641625303
7.777922373300371,0.14663751007724235
7.78592435105068,0.12494102556275756
7.793926328800989,0.12902781397326482
7.801928306551298,0.11523416873008048
7.809930284301607,0.12691747799532974
7.817932262051916,0.1200741314174385
7.825934239802225,0.13783975526608372
7.833936217552534,0.1360037130069677
7.841938195302843,0.15761824267444793
7.849940173053152,0.15839978789508538
7.857942150803461,0.181439067933299
7.86594412855377,0.1824836404697887
7.873946106304079,0.20474574156573913
7.881948084054388,0.20406538673419386
7.889950061804697,0.22381730647470163
7.8979520395550065,0.21995754447672927
7.905954017305316,0.23603332967169233
7.913955995055624,0.22811736696301754
7.9219579728059335,0.23992445205820814
7.929959950556243,0.227636507236054
7.937961928306551,0.23512776983641093
7.9459639060568605,0.2186811843391007
7.95396588380717,0.2223214828013093
7.961967861557478,0.2024213507576688
7.969969839307788,0.20314016593593087
7.977971817058097,0.18091767965332275
7.985973794808405,0.18001648309284596
7.993975772558715,0.15690220389009674
8.001977750309024,0.15588981991350676
8.009979728059333,0.1334119493682502
8.017981705809643,0.1337718876958136
8.02598368355995,0.11330412382330254
8.03398566131026,0.11623895273408975
8.041987639060569,0.09876043919717088
8.049989616810878,0.10498743669815767
8.057991594561187,0.09093300014576872
8.065993572311497,0.10060427056556102
8.073995550061804,0.08986401248041685
8.081997527812113,0.10264785756231391
8.089999505562423,0.09472445242964071
8.098001483312732,0.11002460020120448
8.106003461063041,0.10429325451313619
8.11400543881335,0.12152296102571729
8.122007416563658,0.11749022651616699
8.130009394313968,0.13628655414017532
8.138011372064277,0.13373421819838338
8.146013349814586,0.15401212667781317
8.154015327564895,0.15295108062947052
8.162017305315205,0.1747573783866042
8.170019283065512,0.1751933889284508
8.178021260815822,0.1984070206873779
8.186023238566131,0.2000075231508095
8.19402521631644,0.22401139786047014
8.20202719406675,0.22582380843228958
8.210029171817059,0.24930980548712586
8.218031149567368,0.24968788419639915
8.226033127317676,0.2707296653162202
8.234035105067985,0.26756498027329967
8.242037082818294,0.2840051808827
8.250039060568604,0.2752510938263345
8.258041038318913,0.28532780572919875
8.266043016069222,0.26968097683498776
8.27404499381953,0.27270722059606656
8.282046971569839,0.25022315166548464
8.290048949320148,0.24707723244054539
8.298050927070458,0.21948055572983013
8.306052904820767,0.21269325307931639
8.314054882571076,0.18321530938998853
8.322056860321384,0.17655125144663458
8.330058838071693,0.14927034659357977
8.338060815822002,0.14686379414306955
8.346062793572312,0.12569264996967058
8.354064771322621,0.13095834570224393
8.36206674907293,0.11856021344857179
8.370068726823238,0.13320018071718412
8.378070704573547,0.13016815094818623
8.386072682323856,0.15359464189187613
8.394074660074166,0.15817223715861334
8.402076637824475,0.18755770555864698
8.410078615574784,0.1960243129211587
8.418080593325094,0.22700145614220862
8.426082571075401,0.23464020447798084
8.43408454882571,0.2624682320575562
8.44208652657602,0.2648438073574699
8.45008850432633,0.28570042757719555
8.458090482076638,0.27986522867789054
8.466092459826948,0.2918726159280744
8.474094437577255,0.277131747476916
8.482096415327565,0.28080023616159583
8.490098393077874,0.2587992810665491
8.498100370828183,0.25675341273919294
8.506102348578493,0.23086646498603153
8.514104326328802,0.22694642242749516
8.52210630407911,0.20116585776042376
8.530108281829419,0.1991978092571547
8.538110259579728,0.17688701252490652
8.546112237330037,0.1795210225278436
8.554114215080347,0.16243257615532417
8.562116192830656,0.17042040124716315
8.570118170580963,0.15829033244590315
8.578120148331273,0.1704256811287996
8.586122126081582,0.1612595619508071
8.594124103831891,0.17498023986058325
8.6021260815822,0.16591462592727446
8.61012805933251,0.17834455142947855
8.61813003708282,0.16677577587532352
8.626132014833127,0.17583984740755804
8.634133992583436,0.1604261057965612
8.642135970333745,0.16565107090493753
8.650137948084055,0.14684170870367785
8.658139925834364,0.14956762649209376
8.666141903584673,0.12947859621693114
8.674143881334981,0.1324096631519669
8.68214585908529,0.11408956686964943
8.6901478368356,0.12034015037401621
8.698149814585909,0.10668026842402636
8.706151792336218,0.11864482317003362
8.714153770086527,0.11130835829908783
8.722155747836835,0.12974437483596105
8.730157725587144,0.12848428346921906
8.738159703337454,0.1521260243131174
8.746161681087763,0.15473033690641694
8.754163658838072,0.1805730966815811
8.762165636588382,0.18346661348795423
8.770167614338689,0.2076374219271375
8.778169592088998,0.2069502890943029
8.786171569839308,0.2258866384047075
8.794173547589617,0.21864639172626507
8.802175525339926,0.23020382674656178
8.810177503090236,0.2152679991303597
8.818179480840545,0.21940193255922727
8.826181458590852,0.19783414309538866
8.834183436341162,0.196640491538762
8.842185414091471,0.17141327792975344
8.85018739184178,0.16851837655111776
8.85818936959209,0.14363991838118736
8.866191347342399,0.1431342120373656
8.874193325092707,0.12247357257258697
8.882195302843016,0.12772034096368232
8.890197280593325,0.11389143505682885
8.898199258343634,0.12657025444478048
8.906201236093944,0.12020500464753739
8.914203213844253,0.13986552015182477
8.92220519159456,0.13947636821150208
8.93020716934487,0.1637132951044559
8.93820914709518,0.16616050988781972
8.946211124845489,0.19133147614485208
8.954213102595798,0.19273215831492205
8.962215080346107,0.21498613880057532
8.970217058096415,0.21178400303335257
8.978219035846724,0.22809427570297933
8.986221013597033,0.21798349239229192
8.994222991347343,0.22690118717343125
9.002224969097652,0.20936365282998007
9.010226946847961,0.21131061889735944
9.01822892459827,0.18765527308419194
9.026230902348578,0.18471924168742332
9.034232880098887,0.15765916416249648
9.042234857849197,0.15299253761875584
9.050236835599506,0.12591499031121603
9.058238813349815,0.12293117258465888
9.066240791100125,0.09907632737541261
9.074242768850432,0.10066392427713484
9.082244746600741,0.08242107846890977
9.09024672435105,0.09035947970062029
9.09824870210136,0.07882848231779013
9.10625067985167,0.09351006807826383
9.114252657601979,0.08838798869802936
9.122254635352286,0.10886279135885853
9.130256613102596,0.10863167128974793
9.138258590852905,0.13291697471638922
9.146260568603214,0.13524992594147228
9.154262546353523,0.16080554875105704
9.162264524103833,0.163083804356251
9.17026650185414,0.18734485976788792
9.17826847960445,0.18718253941653723
9.186270457354759,0.20805538747922012
9.194272435105068,0.20374883198904772
9.202274412855378,0.21999884233605227
9.210276390605687,0.21084037755975213
9.218278368355996,0.222321453941411
9.226280346106304,0.2087363914377164
9.234282323856613,0.2164290944570019
9.242284301606922,0.19991078171026003
9.250286279357232,0.20575275154667258
9.25828825710754,0.1885901261354334
9.26629023485785,0.19510660612305153
9.274292212608158,0.1799283245361761
9.282294190358467,0.1897058485704937
9.290296168108776,0.17890497522114707
9.298298145859086,0.1939936927236334
9.306300123609395,0.1891386388164958
9.314302101359704,0.21050577145104954
9.322304079110012,0.21187115798688305
9.330306056860321,0.23904278985716104
9.33830803461063,0.24539172964154776
9.34631001236094,0.2763985840533183
9.354311990111249,0.28510601862836904
9.362313967861558,0.3167875848132432
9.370315945611866,0.3243163981205696
9.378317923362175,0.35294787654281246
9.386319901112484,0.3555938259725681
9.394321878862794,0.377706172208263
9.402323856613103,0.372442738277815
9.410325834363412,0.3856379362954728
9.41832781211372,0.37084744384267
9.42632978986403,0.37439480593956315
9.434331767614339,0.35028711881061897
9.442333745364648,0.34533298877633195
9.450335723114957,0.31392896128180103
9.458337700865266,0.3032524633879428
9.466339678615576,0.2679268060372672
9.474341656365883,0.25530007886396916
9.482343634116193,0.22000254405524228
9.490345611866502,0.20932658103440469
9.498347589616811,0.17769220357081356
9.50634956736712,0.17214267033855962
9.51435154511743,0.14673100990258253
9.522353522867737,0.14814092391411107
9.530355500618047,0.13000048830595398
9.538357478368356,0.1386300898447513
9.546359456118665,0.12728108279108902
9.554361433868975,0.1420043102229515
9.562363411619284,0.13580419791677148
9.570365389369591,0.15461561090632336
9.5783673671199,0.15136004055540703
9.58636934487021,0.17201699088579414
9.59437132262052,0.16956972833815087
9.602373300370829,0.19016045630799944
9.610375278121138,0.18691809998163395
9.618377255871446,0.20619297955302485
9.626379233621755,0.20126639561144155
9.634381211372064,0.21866796033735994
9.642383189122373,0.2117736689432039
9.650385166872683,0.2272148035311265
9.658387144622992,0.21837525293155918
9.666389122373301,0.23190294221113877
9.674391100123609,0.22111700444192625
9.682393077873918,0.23263037467546915
9.690395055624228,0.2196731998637961
9.698397033374537,0.2288295391127412
9.706399011124846,0.2132767906212738
9.714400988875155,0.21963256892841507
9.722402966625463,0.20110347076984578
9.730404944375772,0.20443278777906135
9.738406922126082,0.1829481045250664
9.746408899876391,0.1835986418676801
9.7544108776267,0.1598914860186027
9.76241285537701,0.15900982317886123
9.770414833127317,0.13463201751554912
9.778416810877626,0.1341279708649395
9.786418788627936,0.11126225342689484
9.794420766378245,0.11347317284188581
9.802422744128554,0.09446819607518524
9.810424721878864,0.1015963661358597
9.818426699629171,0.08834875363223132
9.82642867737948,0.10183736196276826
9.83443065512979,0.0952135940700684
9.842432632880099,0.11526471514442951
9.850434610630408,0.11475908189759104
9.858436588380718,0.14016516739025178
9.866438566131027,0.14392492192009293
9.874440543881335,0.17229229690831752
9.882442521631644,0.17752804475575742
9.890444499381953,0.20584731304004
9.898446477132262,0.20952315968406102
9.906448454882572,0.23492860894221146
9.914450432632881,0.23453419408463996
9.922452410383189,0.2550302848487789
9.930454388133498,0.24920674074409357
9.938456365883807,0.2641462068184296
9.946458343634117,0.25298055762950056
9.954460321384426,0.2631536104510438
9.962462299134735,0.24805730877086976
9.970464276885043,0.25537040528579735
9.978466254635352,0.23858461882812496
9.986468232385661,0.24543172349940937
9.99447021013597,0.22931394486543255
10.00247218788628,0.23783377305515777
10.01047416563659,0.22414248518677812
10.018476143386897,0.23558443000360715
10.026478121137206,0.2249730536795997
10.034480098887515,0.23935534877692785
10.042482076637825,0.23121767574387234
10.050484054388134,0.24736852920685434
10.058486032138443,0.24006905333347117
10.066488009888753,0.2560255922103838
10.07448998763906,0.247434312978614
10.08249196538937,0.2610710997669698
10.090493943139679,0.24923761332146002
10.098495920889988,0.2589359125789338
10.106497898640297,0.24270495895819658
10.114499876390607,0.24787068400043338
10.122501854140914,0.22726662824803082
10.130503831891223,0.22855580360709207
10.138505809641533,0.20483529504521358
10.146507787391842,0.20403245314061408
10.154509765142151,0.17939909299403325
10.16251174289246,0.17898959509642187
10.170513720642768,0.15605431664906835
10.178515698393078,0.15860988490095052
10.186517676143387,0.13974276124114737
10.194519653893696,0.14728194034281858
10.202521631644005,0.1340222222645634
10.210523609394315,0.1475069811261836
10.218525587144622,0.14017720102118553
10.226527564894932,0.1592677744104448
10.234529542645241,0.15688372222743596
10.24253152039555,0.1800086821244107
10.25053349814586,0.1805050310926463
10.258535475896169,0.20522885271724212
10.266537453646478,0.20594685167356158
10.274539431396786,0.229548972675027
10.282541409147095,0.22787273484219162
10.290543386897404,0.24800336867991496
10.298545364647714,0.24199591822353048
10.306547342398023,0.2572535359761814
10.314549320148332,0.2461395240988757
10.32255129789864,0.2564272479701152
10.330553275648949,0.2407980157299674
10.338555253399258,0.24736056132393808
10.346557231149568,0.22903572625085458
10.354559208899877,0.2341488579932154
10.362561186650186,0.21570770242821816
10.370563164400494,0.2220762350126961
10.378565142150803,0.20615673506363982
10.386567119901112,0.21615717829539152
10.394569097651422,0.20469081201952558
10.402571075401731,0.2196500536403517
10.41057305315204,0.2132359861603091
10.418575030902348,0.232949003458952
10.426577008652657,0.2305561785270492
10.434578986402967,0.25320283462985615
10.442580964153276,0.2523183943637652
10.450582941903585,0.27484486131770214
10.458584919653894,0.2720732586015867
10.466586897404204,0.29097681192632935
10.474588875154511,0.28296284541397737
10.48259085290482,0.2952927884048713
10.49059283065513,0.2797308523293196
10.49859480840544,0.28403198361015425
10.506596786155749,0.26047044451337015
10.514598763906058,0.2573814745586435
10.522600741656365,0.22756020207487188
10.530602719406675,0.21985233231750187
10.538604697156984,0.18742500944211551
10.546606674907293,0.1794138852479367
10.554608652657603,0.14907952412201403
10.562610630407912,0.14552915423196974
10.57061260815822,0.12178120357675194
10.578614585908529,0.12658625192215187
10.586616563658838,0.11242508636901744
10.594618541409147,0.127452359246915
10.602620519159457,0.1234486281256899
10.610622496909766,0.1479016040470051
10.618624474660074,0.15192085744336278
10.626626452410383,0.1824574083824125
10.634628430160692,0.19017434847488668
10.642630407911001,0.22178999126810367
10.65063238566131,0.227883286525437
10.65863436341162,0.2553337454980783
10.66663634116193,0.25503195944528095
10.674638318912237,0.2743852064620016
10.682640296662546,0.2649038361633701
10.690642274412856,0.2747467910415354
10.698644252163165,0.25616454615680156
10.706646229913474,0.2580726320898759
10.714648207663783,0.23334858522398474
10.722650185414091,0.23143994394607442
10.7306521631644,0.20553120608006253
10.73865414091471,0.20520994378897311
10.746656118665019,0.1835341255458412
10.754658096415328,0.18979028561137284
10.762660074165638,0.17649684333502713
10.770662051915945,0.19228796621467806
10.778664029666254,0.18888255047650623
10.786666007416564,0.21411614018701203
10.794667985166873,0.21888947077261733
10.802669962917182,0.25035176625176275
10.810671940667492,0.2588219422247711
10.8186739184178,0.29110571839409827
10.826675896168108,0.2973633441806822
10.834677873918418,0.32452700136640217
10.842679851668727,0.32307760651471357
10.850681829419036,0.34052333413973496
10.858683807169346,0.3280486317086361
10.866685784919655,0.334021545184825
10.874687762669963,0.3104907308568232
10.882689740420272,0.306706739952118
10.890691718170581,0.27546373173750227
10.89869369592089,0.2666425455468042
10.9066956736712,0.23341638731880418
10.914697651421509,0.2258441054920467
10.922699629171817,0.1969760061906123
10.930701606922126,0.19653748614545472
10.938703584672435,0.17697670218806044
10.946705562422745,0.18727759709123093
10.954707540173054,0.17898338240622408
10.962709517923363,0.200164164097324
10.97071149567367,0.20143140979706328
10.97871347342398,0.2300631524195502
10.98671545117429,0.23600076447653548
10.994717428924599,0.26611120955602097
11.002719406674908,0.2701362258468927
11.010721384425217,0.2950539218424745
11.018723362175525,0.29093877958535275
11.026725339925834,0.3053796576806948
11.034727317676143,0.2892106973360005
11.042729295426453,0.29095124136944694
11.050731273176762,0.26238225460453674
11.058733250927071,0.25299307628923084
11.06673522867738,0.21540065363524014
11.074737206427688,0.19981213193328418
11.082739184177997,0.15930770098693584
11.090741161928307,0.14434900421020092
11.098743139678616,0.10796313508601436
11.106745117428925,0.10033798172122858
11.114747095179235,0.07394955935224397
11.122749072929542,0.07828322338367524
11.130751050679851,0.06493773888563112
11.13875302843016,0.08249668086542927
11.14675500618047,0.08162345648931905
11.15475698393078,0.11008507796316402
11.162758961681089,0.11782913230075043
11.170760939431396,0.1521397317455271
11.178762917181706,0.16266773107829643
11.186764894932015,0.19668324708931492
11.194766872682324,0.2040205184470294
11.202768850432633,0.2323877360036065
11.210770828182943,0.23219076700354316
11.21877280593325,0.25187001221899413
11.22677478368356,0.24258150514975926
11.234776761433869,0.2535488432585196
11.242778739184178,0.2366009597636483
11.250780716934488,0.24154864348969507
11.258782694684797,0.2205986286491852
11.266784672435104,0.22378176199960084
11.274786650185414,0.20327638021132005
11.282788627935723,0.2089232419267714
11.290790605686032,0.19249337584080817
11.298792583436342,0.20332117789114465
11.306794561186651,0.19254268481464792
11.31479653893696,0.20886436662144348
11.322798516687268,0.202780517982173
11.330800494437577,0.22247612682939472
11.338802472187886,0.21801268151773465
11.346804449938196,0.23734548234186897
11.354806427688505,0.23045201318100653
11.362808405438814,0.24543298788307452
11.370810383189122,0.23255128501331981
11.378812360939431,0.24038521110979794
11.38681433868974,0.21975049394180604
11.39481631644005,0.21988356677357518
11.402818294190359,0.1922323957091861
11.410820271940668,0.18666364380222916
11.418822249690976,0.15512555560310398
11.426824227441285,0.14789022892291215
11.434826205191595,0.11710764549892107
11.442828182941904,0.11310736886092207
11.450830160692213,0.08787211948698619
11.458832138442522,0.09142807025067806
11.46683411619283,0.0752664749807643
11.47483609394314,0.08884720527446521
11.482838071693449,0.08298826155975174
11.490840049443758,0.1064951681343249
11.498842027194067,0.10952388113488355
11.506844004944377,0.14033326343905306
11.514845982694686,0.14861169106020905
11.522847960444993,0.18233600106168227
11.530849938195303,0.19104071056892785
11.538851915945612,0.22275870409472676
11.546853893695921,0.22720764888639866
11.55485587144623,0.25278736204400487
11.56285784919654,0.24966157237630307
11.570859826946847,0.26679394523114225
11.578861804697157,0.25491317682080783
11.586863782447466,0.2635814179174986
11.594865760197775,0.2440433979075434
11.602867737948085,0.246333631556876
11.610869715698394,0.2220218849274103
11.618871693448702,0.22137529441562165
11.62687367119901,0.19601970953727257
11.63487564894932,0.19617712152158745
11.64287762669963,0.1732635511080418
11.650879604449939,0.177220243589348
11.658881582200248,0.15906405132665596
11.666883559950556,0.1683238379305943
11.674885537700865,0.15555062725415333
11.682887515451174,0.1698610315382585
11.690889493201484,0.16140460857447347
11.698891470951793,0.17900680929381727
11.706893448702102,0.17258281489250007
11.714895426452411,0.19086599119774045
11.722897404202719,0.18375299981989954
11.730899381953028,0.20010149783436892
11.738901359703338,0.18999133501015184
11.746903337453647,0.20257739829641352
11.754905315203956,0.18825575729992727
11.762907292954266,0.1965631252568767
11.770909270704573,0.1782434725119262
11.778911248454882,0.18319283533619626
11.786913226205192,0.1624292934853546
11.794915203955501,0.1660888825304014
11.80291718170581,0.14530808860629513
11.81091915945612,0.15028175656043996
11.818921137206427,0.13207100529839433
11.826923114956736,0.14073620633997536
11.834925092707046,0.12708375418380896
11.842927070457355,0.14088607237997178
11.850929048207664,0.13257800237653666
11.858931025957974,0.15157173845714778
11.866933003708281,0.14790840159112026
11.87493498145859,0.17066976257332878
11.8829369592089,0.1695840268140032
11.89093893695921,0.19352953715744403
11.898940914709518,0.19208739118893645
11.906942892459828,0.21412655588678006
11.914944870210137,0.2092911887217346
11.922946847960445,0.22665317051862308
11.930948825710754,0.21612015810656776
11.938950803461063,0.2271414506365174
11.946952781211372,0.21002453963718212
11.954954758961682,0.21468375182281338
11.962956736711991,0.1918582282280564
11.970958714462299,0.19189931659206816
11.978960692212608,0.1658904293387276
11.986962669962917,0.16447719325288218
11.994964647713227,0.13889765737347293
12.002966625463536,0.1398666504427104
12.010968603213845,0.1185311232555755
12.018970580964153,0.12542484360703343
12.026972558714462,0.11136629567038803
12.034974536464771,0.1265001569479378
12.04297651421508,0.12115305227994079
12.05097849196539,0.14497375032970833
12.0589804697157,0.14775542930490293
12.066982447466007,0.1786781761956086
12.074984425216316,0.18709693058801052
12.082986402966625,0.22187992907344692
12.090988380716935,0.2321518581202855
12.098990358467244,0.26671331196722414
12.106992336217553,0.2747218775008429
12.114994313967863,0.30517321486107774
12.12299629171817,0.30750110491413357
12.13099826946848,0.33110203709949404
12.139000247218789,0.32583946219428767
12.147002224969098,0.341600641936102
12.155004202719407,0.32869937569456686
12.163006180469717,0.33746434794588165
12.171008158220024,0.318545699360776
12.179010135970334,0.32254491723406764
12.187012113720643,0.3002402326468889
12.195014091470952,0.30227568353425927
12.203016069221261,0.27932520908376185
12.21101804697157,0.2818602535291478
12.219020024721878,0.26027082798015955
12.227022002472188,0.26472617538643395
12.235023980222497,0.24526335804464347
12.243025957972806,0.251745563274761
12.251027935723116,0.23391745301345235
12.259029913473425,0.24145396748575193
12.267031891223732,0.2239705893250055
12.275033868974042,0.23114605263543347
12.283035846724351,0.21266873105582634
12.29103782447466,0.21841288260243286
12.29903980222497,0.19830215165750348
12.307041779975279,0.20252239139902878
12.315043757725588,0.18129006336278367
12.323045735475896,0.18509429062702226
12.331047713226205,0.1643695412089981
12.339049690976514,0.1697721303372846
12.347051668726824,0.15176896932470643
12.355053646477133,0.16096481580326505
12.363055624227442,0.14762759094800187
12.37105760197775,0.16208818203161682
12.37905957972806,0.15422454360387097
12.387061557478368,0.17395352802379513
12.395063535228678,0.17068973488196154
12.403065512978987,0.19393914513056293
12.411067490729296,0.19273633732706177
12.419069468479604,0.2163357665175662
12.427071446229913,0.21361667244790972
12.435073423980223,0.2338544774476278
12.443075401730532,0.22607150677021548
12.451077379480841,0.2398629998427777
12.45907935723115,0.2246678088244131
12.467081334981458,0.23062404062412978
12.475083312731767,0.20773896338964543
12.483085290482077,0.2067585538486538
12.491087268232386,0.17822856695430947
12.499089245982695,0.17337740230024143
12.507091223733005,0.14307655839073236
12.515093201483314,0.13875220830699284
12.523095179233621,0.11126753309508117
12.53109715698393,0.1118896732973415
12.53909913473424,0.09112366948570717
12.54710111248455,0.0997639356105141
12.555103090234859,0.0877069612355816
12.563105067985168,0.10510896425177328
12.571107045735475,0.1011926836171351
12.579109023485785,0.12551766919066606
12.587111001236094,0.12677919785815253
12.595112978986403,0.15417974072678794
12.603114956736713,0.15620104854676037
12.611116934487022,0.18205076468647155
12.61911891223733,0.18037786321516966
12.627120889987639,0.2007622014295707
12.635122867737948,0.19234258975431
12.643124845488257,0.20532156650343494
12.651126823238567,0.18948491763480957
12.659128800988876,0.19570775404536284
12.667130778739184,0.17436119135180392
12.675132756489493,0.1768243507105067
12.683134734239802,0.15379250449016627
12.691136711990112,0.1568166618349485
12.69913868974042,0.13654149362013093
12.70714066749073,0.14430391659889083
12.71514264524104,0.13033375848995046
12.723144622991347,0.14544188576479147
12.731146600741656,0.13921025843222942
12.739148578491966,0.16178893706432707
12.747150556242275,0.16208704517057285
12.755152533992584,0.18968025058709884
12.763154511742894,0.1929953476648579
12.771156489493201,0.22131156656342793
12.77915846724351,0.22291538967150462
12.78716044499382,0.24716647094805008
12.795162422744129,0.2425913285138262
12.803164400494438,0.25898194308798417
12.811166378244748,0.24539971496489313
12.819168355995055,0.2522827318708271
12.827170333745364,0.22934374193463855
12.835172311495674,0.2276777646149735
12.843174289245983,0.19755543312148996
12.851176266996292,0.19054057991600715
12.859178244746602,0.15719704047103653
12.86718022249691,0.14923990776251855
12.875182200247218,0.11718407685640528
12.883184177997528,0.11255832853356532
12.891186155747837,0.08552422535426474
12.899188133498146,0.08717742735861911
12.907190111248456,0.06715620932262786
12.915192088998765,0.07604139203863566
12.923194066749073,0.06295828080692792
12.931196044499382,0.07807010515351238
12.939198022249691,0.07016117379597837
12.9472,0.08920463586924698
12.95520197775031,0.08390374228014962
12.963203955500619,0.10430795087200709
12.971205933250927,0.0992870644836973
12.979207911001236,0.11917237182040476
12.987209888751545,0.11314557171538284
12.995211866501855,0.1318925203387283
13.003213844252164,0.12490240726463521
13.011215822002473,0.143136611434709
13.01921779975278,0.13624849112791543
13.02721977750309,0.15528331527016703
13.0352217552534,0.14983981454069395
13.043223733003709,0.1708242705146496
13.051225710754018,0.1675777850802563
13.059227688504327,0.19070587917753212
13.067229666254635,0.18918935983285526
13.075231644004944,0.21330094848658254
13.083233621755253,0.21170498211873037
13.091235599505563,0.23445833271734898
13.099237577255872,0.23008964833336593
13.107239555006181,0.24866838131136468
13.11524153275649,0.2388431741273788
13.123243510506798,0.25095508684769335
13.131245488257107,0.2340110984387177
13.139247466007417,0.2388184183823735
13.147249443757726,0.21487422796948713
13.155251421508035,0.2135070013663986
13.163253399258345,0.18467571493385265
13.171255377008652,0.180118166029335
13.179257354758962,0.15006762671251256
13.18725933250927,0.14642224789114858
13.19526131025958,0.11939931882725495
13.20326328800989,0.12074902630044722
13.211265265760199,0.10037185296823088
13.219267243510506,0.10960106009211039
13.227269221260816,0.09780551256215875
13.235271199011125,0.11575797962930053
13.243273176761434,0.1122350477930129
13.251275154511744,0.13747532011169925
13.259277132262053,0.1397738474882772
13.26727911001236,0.1690201200659272
13.27528108776267,0.1732715462050978
13.283283065512979,0.20235061931102163
13.291285043263288,0.20437473219897806
13.299287021013598,0.22938849698385838
13.307288998763907,0.22582783076372534
13.315290976514216,0.2441679570532657
13.323292954264524,0.23330765904135192
13.331294932014833,0.2442240707732978
13.339296909765142,0.2262751911382806
13.347298887515452,0.23086526195557966
13.355300865265761,0.20767568099409692
13.36330284301607,0.20835511643430055
13.371304820766378,0.18269675527238904
13.379306798516687,0.18237194153375044
13.387308776266996,0.15707287973035186
13.395310754017306,0.15830634236717434
13.403312731767615,0.13551562937432382
13.411314709517924,0.13994311388842237
13.419316687268232,0.12073585480086584
13.427318665018541,0.12887566995628852
13.43532064276885,0.1132630274384307
13.44332262051916,0.12470478842435061
13.45132459826947,0.11196444913418507
13.459326576019778,0.1257936796618078
13.467328553770086,0.11493579067718007
13.475330531520395,0.13018880446528452
13.483332509270705,0.12035315228035323
13.491334487021014,0.13632013533598866
13.499336464771323,0.12696225664822117
13.507338442521633,0.14324877908945277
13.51534042027194,0.13408455118803722
13.52334239802225,0.15046064543215415
13.531344375772559,0.1412519922005572
13.539346353522868,0.1574132736944166
13.547348331273177,0.14774541739068167
13.555350309023487,0.1631442696511768
13.563352286773796,0.152341281761235
13.571354264524103,0.16620623697552322
13.579356242274413,0.15346037777450555
13.587358220024722,0.16502732323333466
13.595360197775031,0.14971048746057325
13.60336217552534,0.15858137575351536
13.61136415327565,0.14061021199554416
13.619366131025958,0.14708024148316176
13.627368108776267,0.12716240939493495
13.635370086526576,0.13234855967775438
13.643372064276885,0.11196721558193992
13.651374042027195,0.11763612002600951
13.659376019777504,0.09872432623866959
13.667377997527812,0.10683245881938876
13.67537997527812,0.09121321833513414
13.68338195302843,0.10329287062203953
13.69138393077874,0.09206506526118959
13.699385908529049,0.10866717681130736
13.707387886279358,0.10175968570007775
13.715389864029666,0.12216575513580026
13.723391841779975,0.11824103196030569
13.731393819530284,0.14057595240633688
13.739395797280594,0.13735124128323628
13.747397775030903,0.15909306097456458
13.755399752781212,0.1540011973714231
13.763401730531521,0.1727407628365476
13.771403708281829,0.16372617510290707
13.779405686032138,0.17793216957543803
13.787407663782448,0.1641187892175924
13.795409641532757,0.17364949443258454
13.803411619283066,0.15564991980773624
13.811413597033376,0.16183025764919012
13.819415574783683,0.14158094587267078
13.827417552533992,0.14680699689651502
13.835419530284302,0.12697341762786962
13.843421508034611,0.13396705621652003
13.85142348578492,0.11710999894404828
13.85942546353523,0.12806699076595643
13.867427441285537,0.11584434320710363
13.875429419035846,0.13175713278400727
13.883431396786156,0.12442450153248065
13.891433374536465,0.14480197620336682
13.899435352286774,0.14117376753984526
13.907437330037084,0.16424478247001134
13.915439307787391,0.16212022738947326
13.9234412855377,0.18544297224790818
13.93144326328801,0.18234402940862776
13.93944524103832,0.20360696437260872
13.947447218788628,0.19757196705194435
13.955449196538938,0.215311313867417
13.963451174289247,0.20547499522431292
13.971453152039555,0.21946892433961324
13.979455129789864,0.20623951163439425
13.987457107540173,0.21745661834446256
13.995459085290483,0.20224471735203842
14.003461063040792,0.2123818657756027
14.011463040791101,0.19699257517442859
14.019465018541409,0.20777911510123717
14.027466996291718,0.1936933840230044
14.035468974042027,0.2062159912499151
14.043470951792337,0.19402063524727878
14.051472929542646,0.20831007764601403
14.059474907292955,0.1974782498303087
14.067476885043263,0.2125027561872315
14.075478862793572,0.2016001218387564
14.083480840543881,0.215665196715896
14.09148281829419,0.20290704844583526
14.0994847960445,0.21431976476463885
14.10748677379481,0.19828314426403199
14.115488751545117,0.20604881947827938
14.123490729295426,0.18629210433033905
14.131492707045735,0.19060210510976222
14.139494684796045,0.1679779083176543
14.147496662546354,0.17031961834424522
14.155498640296663,0.14687104510604956
14.163500618046973,0.1497174997767012
14.17150259579728,0.12818519467607947
14.17950457354759,0.13435817872952038
14.187506551297899,0.1174491996706188
14.195508529048208,0.12935036518848017
14.203510506798517,0.11898998321211145
14.211512484548827,0.13792896914900898
14.219514462299134,0.1347135892173801
14.227516440049444,0.16052348324446733
14.235518417799753,0.1635231046156456
14.243520395550062,0.19455974929718173
14.251522373300372,0.2015092907543074
14.25952435105068,0.23501626261410058
14.267526328800988,0.24282445745237902
14.275528306551298,0.27554771067090583
14.283530284301607,0.2809743157577208
14.291532262051916,0.30985730905572334
14.299534239802226,0.31018340741839046
14.307536217552535,0.33297465212831756
14.315538195302842,0.3265165559389503
14.323540173053152,0.3421674388360702
14.331542150803461,0.32854501362099897
14.33954412855377,0.33734397274975864
14.34754610630408,0.3174838503723834
14.355548084054389,0.320938209823683
14.363550061804698,0.29684850776364197
14.371552039555006,0.2973692430476435
14.379554017305315,0.2717528080015094
14.387555995055624,0.2722146612665036
14.395557972805934,0.24799353021492074
14.403559950556243,0.2512399620203542
14.411561928306552,0.23105565124639688
14.41956390605686,0.23940839491324797
14.42756588380717,0.22515431622858714
14.435567861557479,0.23998254397288538
14.443569839307788,0.2324245828953493
14.451571817058097,0.25383251675662616
14.459573794808406,0.25238002506912455
14.467575772558714,0.2790776848632286
14.475577750309023,0.28176921782966047
14.483579728059333,0.3111856988355609
14.491581705809642,0.31493793062380404
14.499583683559951,0.3436078014656783
14.50758566131026,0.3447334034408238
14.515587639060568,0.3689310624653943
14.523589616810877,0.3638650353357413
14.531591594561187,0.38038933332088826
14.539593572311496,0.36649027627379416
14.547595550061805,0.3734349607583505
14.555597527812115,0.3496743368280107
14.563599505562424,0.34698646842006936
14.571601483312731,0.3143311044452396
14.57960346106304,0.30398111577017434
14.58760543881335,0.2653264380226854
14.59560741656366,0.25099520799815833
14.603609394313969,0.2106137467133029
14.611611372064278,0.19692767906659206
14.619613349814585,0.15953263052373212
14.627615327564895,0.151012154122192
14.635617305315204,0.12065826724013161
14.643619283065513,0.12064489705677325
14.651621260815823,0.09975642283920719
14.659623238566132,0.10961148850061563
14.66762521631644,0.09841114490044152
14.675627194066749,0.11721902866299726
14.683629171817058,0.11373021211807004
14.691631149567367,0.13860242451806856
14.699633127317677,0.13923545756876715
14.707635105067986,0.16613782872325722
14.715637082818294,0.16669816053538225
14.723639060568603,0.19156583085747425
14.731641038318912,0.18839299310138993
14.739643016069222,0.20820838738014882
14.74764499381953,0.19911267611112898
14.75564697156984,0.2126316868623339
14.76364894932015,0.19735737093139044
14.771650927070457,0.2052781424557868
14.779652904820766,0.18536998939352026
14.787654882571076,0.18991361009203606
14.795656860321385,0.16805105287516292
14.803658838071694,0.17210809653435014
14.811660815822004,0.15113770182469038
14.819662793572311,0.1572686523504078
14.82766477132262,0.13925611992786788
14.83566674907293,0.14887313779702788
14.843668726823239,0.1344810603911884
14.851670704573548,0.14747049214169125
14.859672682323858,0.135852905433729
14.867674660074165,0.15074555544957544
14.875676637824474,0.13997389186745238
14.883678615574784,0.15458482306383192
14.891680593325093,0.142441718600526
14.899682571075402,0.15474553726908352
14.907684548825712,0.13960275767971506
14.91568652657602,0.14853591585653253
14.923688504326329,0.13001012198946743
14.931690482076638,0.13592267606282876
14.939692459826947,0.11508402627543404
14.947694437577256,0.11968749949575105
14.955696415327566,0.09875209811815988
14.963698393077875,0.1045840908247336
14.971700370828183,0.08619799777060515
14.979702348578492,0.09578822288089511
14.987704326328801,0.08214796217932246
14.99570630407911,0.09716913079432236
15.00370828182942,0.08927571923802595
15.01171025957973,0.10996409286410308
15.019712237330037,0.10725875245913961
15.027714215080346,0.13229489553037563
15.035716192830655,0.1327936339079214
15.043718170580965,0.1596780403680817
15.051720148331274,0.1605553662708909
15.059722126081583,0.18635024538798176
15.06772410383189,0.1847764789590604
15.0757260815822,0.20696905023831827
15.08372805933251,0.20092909993575622
15.091730037082819,0.21814037982340648
15.099732014833128,0.20697752994437038
15.107733992583437,0.21930098470515258
15.115735970333745,0.2038281772510401
15.123737948084054,0.21271070596519742
15.131739925834363,0.19487731560151958
15.139741903584673,0.20260500725091046
15.147743881334982,0.1848485338128056
15.155745859085291,0.19382059182147607
15.1637478368356,0.17832337423012393
15.171749814585908,0.1903511607055599
15.179751792336218,0.17843527656244446
15.187753770086527,0.19427628751916134
15.195755747836836,0.1861062971402993
15.203757725587145,0.20534993387285053
15.211759703337455,0.20000003128915514
15.219761681087762,0.22129952822454635
15.227763658838072,0.2171209196088655
15.235765636588381,0.23865738109551335
15.24376761433869,0.23379466595016568
15.251769592089,0.25380019680689647
15.259771569839309,0.24667850600742824
15.267773547589616,0.2638511186022403
15.275775525339926,0.25349190401653204
15.283777503090235,0.2671964729942141
15.291779480840544,0.253299741423035
15.299781458590854,0.2635389619377259
15.307783436341163,0.24636017327937892
15.31578541409147,0.2535819661497304
15.32378739184178,0.23369886245016208
15.331789369592089,0.2385526320864077
15.339791347342398,0.216638830677195
15.347793325092708,0.21978940454680035
15.355795302843017,0.19648465800350376
15.363797280593325,0.19854650722909714
15.371799258343634,0.17445383685174404
15.379801236093943,0.17604197647338268
15.387803213844252,0.15181653277325968
15.395805191594562,0.15365298349137216
15.403807169344871,0.13010373495141725
15.41180914709518,0.13309273767650134
15.419811124845488,0.11121273637514124
15.427813102595797,0.11641297468374315
15.435815080346106,0.09728735882463171
15.443817058096416,0.10575725323532416
15.451819035846725,0.09035497083202536
15.459821013597034,0.10290671924701968
15.467822991347342,0.09181793465819717
15.475824969097651,0.10876237055204144
15.48382694684796,0.10197545735849986
15.49182892459827,0.12295395913038044
15.49983090234858,0.11976090245972901
15.507832880098888,0.14373678106367174
15.515834857849196,0.14281568835688244
15.523836835599505,0.16824506136776876
15.531838813349815,0.1679089693680153
15.539840791100124,0.19305036221196872
15.547842768850433,0.1915953744425685
15.555844746600743,0.21487106365649883
15.56384672435105,0.21092479019078295
15.57184870210136,0.23123176146548569
15.579850679851669,0.22400584771076498
15.587852657601978,0.24089426916507403
15.595854635352287,0.23027963832819232
15.603856613102597,0.24396262638189017
15.611858590852906,0.23045825903158929
15.619860568603213,0.24167008131701526
15.627862546353523,0.22618564215063713
15.635864524103832,0.2359466797122038
15.643866501854141,0.2195487981446354
15.65186847960445,0.22891139988307274
15.65987045735476,0.21258505641405692
15.667872435105068,0.22242293247038566
15.675874412855377,0.20689715619659382
15.683876390605686,0.21777134076644186
15.691878368355995,0.2034254245960873
15.699880346106305,0.2155275605650148
15.707882323856614,0.20236618016631294
15.715884301606922,0.21551945403317319
15.723886279357231,0.20319385869577247
15.73188825710754,0.2168903875581409
15.73989023485785,0.20475012051747649
15.747892212608159,0.21821759076870345
15.755894190358468,0.20539484042238382
15.763896168108776,0.21770286696238467
15.771898145859085,0.2032455374238769
15.779900123609394,0.21346921592186852
15.787902101359704,0.19653638843789809
15.795904079110013,0.20398146996222907
15.803906056860322,0.1840915162572526
15.811908034610632,0.18855364606182493
15.819910012360939,0.16583789712740257
15.827911990111248,0.1678299663022017
15.835913967861558,0.14321043380185303
15.843915945611867,0.1440668353759818
15.851917923362176,0.1192650778763924
15.859919901112486,0.12103776110456715
15.867921878862793,0.09834769146848843
15.875923856613102,0.10345437284871832
15.883925834363412,0.08527505884937939
15.891927812113721,0.09593691883328719
15.89992978986403,0.08414617755734287
15.90793176761434,0.10173755844472003
15.915933745364647,0.09706465840190798
15.923935723114957,0.12155898964544852
15.931937700865266,0.12315333884533533
15.939939678615575,0.15285915296398955
15.947941656365884,0.1582290144972867
15.955943634116194,0.1899537897770872
15.963945611866501,0.19536182336856975
15.97194758961681,0.22502818596351767
15.97994956736712,0.22629929461741932
15.98795154511743,0.24989865148083004
15.995953522867739,0.24345932584773994
16.003955500618048,0.2581065981075861
16.011957478368355,0.2419795078914252
16.019959456118666,0.2467725695508843
16.027961433868974,0.2212323203683016
16.035963411619285,0.21764772374737387
16.043965389369593,0.18531732369389
16.0519673671199,0.17698914483335532
16.05996934487021,0.142305919636143
16.06797132262052,0.13420688738284986
16.07597330037083,0.10236894644727858
16.083975278121137,0.09959106961944465
16.091977255871445,0.07525476505916634
16.099979233621756,0.08171407476239952
16.107981211372064,0.06779745723403502
16.115983189122375,0.08522159367307572
16.123985166872682,0.08214892440350097
16.131987144622993,0.10963306240987965
16.1399891223733,0.11523405427540248
16.14799110012361,0.14949025917071973
16.15599307787392,0.1595807063947997
16.163995055624227,0.19580684847749477
16.171997033374538,0.2052820899383937
16.179999011124846,0.23840040279458494
16.188000988875157,0.24253004248702043
16.196002966625464,0.26844652320941326
16.20400494437577,0.2640115233934061
16.212006922126083,0.28055480699762575
16.22000889987639,0.26652888461040414
16.2280108776267,0.2738356841901922
16.23601285537701,0.25145946004608094
16.244014833127316,0.25174566812070626
16.252016810877628,0.22402505290357028
16.260018788627935,0.2208605939165123
16.268020766378246,0.19168146590400367
16.276022744128554,0.189016666753745
16.284024721878865,0.1621571622654133
16.292026699629172,0.16339146290805565
16.30002867737948,0.14170838200318256
16.30803065512979,0.14904203444602762
16.3160326328801,0.13401870287094272
16.32403461063041,0.1482095014813312
16.332036588380717,0.13991615412794303
16.340038566131025,0.1604221669335598
16.348040543881336,0.15780681278481704
16.356042521631643,0.1831824341642079
16.364044499381954,0.18452515498538677
16.372046477132262,0.21288753064512014
16.380048454882573,0.21623816465414838
16.38805043263288,0.2456441428881564
16.396052410383188,0.2491178808068354
16.4040543881335,0.27777015248526515
16.412056365883807,0.2796683914056677
16.420058343634118,0.305965919159958
16.428060321384425,0.30477912250401085
16.436062299134736,0.32729978569641965
16.444064276885044,0.3216978705595778
16.45206625463535,0.33922129278216345
16.460068232385662,0.328126931088945
16.46807021013597,0.33976705112905736
16.47607218788628,0.32254561190152603
16.48407416563659,0.3279852282988959
16.492076143386896,0.3047014207158954
16.500078121137207,0.30444103309845416
16.508080098887515,0.27606595263257944
16.516082076637826,0.2715548509112104
16.524084054388133,0.23999091403510825
16.532086032138444,0.2335236212851578
16.540088009888752,0.2013612703099758
16.54808998763906,0.19569655089614818
16.55609196538937,0.16571178464907949
16.564093943139678,0.16347853467557105
16.57209592088999,0.1379886035484259
16.580097898640297,0.14104108973356697
16.588099876390604,0.12131297948735853
16.596101854140915,0.13024527359829896
16.604103831891223,0.11616268781598622
16.612105809641534,0.13016391698763394
16.62010778739184,0.1202916932186367
16.628109765142153,0.1374229942097996
16.63611174289246,0.1294812877877946
16.644113720642768,0.14731379237734604
16.65211569839308,0.13893060200209442
16.660117676143386,0.1553512620191536
16.668119653893697,0.1448534458323068
16.676121631644005,0.15877219500194814
16.684123609394316,0.14574501775036097
16.692125587144623,0.15745417097695513
16.70012756489493,0.1428643530925683
16.708129542645242,0.15390920251741586
16.71613152039555,0.1397291084333484
16.72413349814586,0.15231399044369096
16.73213547589617,0.14075817855290848
16.740137453646476,0.15687861232679962
16.748139431396787,0.14950775943731132
16.756141409147094,0.17010689592539774
16.764143386897405,0.16711492629418243
16.772145364647713,0.1915698626551477
16.780147342398024,0.19152193258094047
16.78814932014833,0.21766474672748282
16.79615129789864,0.2178082904053949
16.80415327564895,0.24250843297600175
16.812155253399258,0.2395836573235108
16.82015723114957,0.2597219843255034
16.828159208899876,0.2510187691089841
16.836161186650187,0.26453728322556525
16.844163164400495,0.24884609200706329
16.852165142150803,0.2555147121210221
16.860167119901114,0.2336378672926964
16.86816909765142,0.23525932568063873
16.876171075401732,0.20988394877352848
16.88417305315204,0.20983720597476282
16.892175030902347,0.18477985734108163
16.90017700865266,0.18702288460645058
16.908178986402966,0.1660691178529922
16.916180964153277,0.17390916078856913
16.924182941903585,0.15961592410656325
16.932184919653896,0.17464439405888674
16.940186897404203,0.16749810527906336
16.94818887515451,0.1890450187859223
16.95619085290482,0.18726159852962979
16.96419283065513,0.21256202893497544
16.97219480840544,0.21261012503421683
16.980196786155748,0.2376446026908128
16.988198763906055,0.23533669684552416
16.996200741656367,0.256085073081801
17.004202719406674,0.24789193120290418
17.012204697156985,0.2616005347602619
17.020206674907293,0.2457665247028932
17.028208652657604,0.25181923801904077
17.03621063040791,0.2289167192522279
17.04421260815822,0.22902634868987184
17.05221458590853,0.20176776778859498
17.060216563658837,0.19942412023335165
17.06821854140915,0.17179161181626393
17.076220519159456,0.17114467084412419
17.084222496909767,0.14711935139106505
17.092224474660075,0.15165998036642328
17.100226452410382,0.13396328959092882
17.108228430160693,0.14542924290663592
17.116230407911,0.13468377373621876
17.124232385661312,0.152544107874259
17.13223436341162,0.1471232814633841
17.140236341161927,0.16880448881463173
17.148238318912238,0.16541500789884536
17.156240296662546,0.18719009266616127
17.164242274412857,0.1819926225626501
17.172244252163164,0.20023937883423626
17.180246229913475,0.19013930453570901
17.188248207663783,0.20255608704770045
17.19625018541409,0.18624339253739497
17.2042521631644,0.19262706868534746
17.21225414091471,0.17102821901444507
17.22025611866502,0.17336289799919943
17.228258096415328,0.14935928937730514
17.23626007416564,0.15118773405621203
17.244262051915946,0.1286915895112941
17.252264029666254,0.13397101645400358
17.260266007416565,0.11665411632600999
17.268267985166872,0.12846082414520213
17.276269962917183,0.1185395506599255
17.28427194066749,0.13803202842510076
17.2922739184178,0.13549154761719737
17.30027589616811,0.16145761042459658
17.308277873918417,0.16395800112329192
17.316279851668728,0.19308753210943136
17.324281829419036,0.19658206131429948
17.332283807169347,0.22438304201913015
17.340285784919654,0.22426154794885275
17.348287762669962,0.2463435482513212
17.356289740420273,0.23875893660804853
17.36429171817058,0.25210327711255986
17.37229369592089,0.2350913945348615
17.3802956736712,0.2389391955864742
17.388297651421507,0.21301184706327592
17.396299629171818,0.20912149002924293
17.404301606922125,0.1771730105463378
17.412303584672436,0.1693862047503854
17.420305562422744,0.13595369756931733
17.428307540173055,0.1292056545571178
17.436309517923362,0.09930128876077177
17.44431149567367,0.09835803743391791
17.45231347342398,0.07619869434386951
17.46031545117429,0.08446443262383753
17.4683174289246,0.07243424836577421
17.476319406674907,0.09113356193260534
17.48432138442522,0.0892333704149769
17.492323362175526,0.11715597857899053
17.500325339925833,0.12305094987114233
17.508327317676144,0.1568898153830817
17.516329295426452,0.16650745328342312
17.524331273176763,0.20167091520177738
17.53233325092707,0.21017024845807242
17.540335228677378,0.24184422743133616
17.54833720642769,0.24470453758431662
17.556339184177997,0.26890319759321474
17.564341161928308,0.26287781760599055
17.572343139678615,0.2772506940808427
17.580345117428926,0.26098899971742234
17.588347095179234,0.2652321579304597
17.59634907292954,0.23946747348308844
17.604351050679853,0.23528867160030922
17.61235302843016,0.20259305258169988
17.62035500618047,0.19327871114164258
17.62835698393078,0.1574728338832576
17.63635896168109,0.14717749513200623
17.644360939431397,0.11253995573041464
17.652362917181705,0.10545710863249706
17.660364894932016,0.07589787000162089
17.668366872682324,0.07547478180834234
17.676368850432635,0.05382637201736402
17.684370828182942,0.0621617077597028
17.69237280593325,0.049707520070428134
17.70037478368356,0.06722817067571345
17.70837676143387,0.06353885634459817
17.71637873918418,0.08899991398155208
17.724380716934487,0.09209390778910695
17.732382694684798,0.12288980326690832
17.740384672435106,0.12967856134421352
17.748386650185413,0.1623998615976978
17.756388627935724,0.16932842866146583
17.76439060568603,0.2004541716226101
17.772392583436343,0.2042103695976188
17.78039456118665,0.2307978303616431
17.788396538936958,0.22894672067173163
17.79639851668727,0.24917697730220295
17.804400494437576,0.24058815824564853
17.812402472187888,0.25405181682742084
17.820404449938195,0.23902796645719818
17.828406427688506,0.2466898707734467
17.836408405438814,0.22677070548348047
17.84441038318912,0.23062613906430565
17.852412360939432,0.20811928344828035
17.86041433868974,0.21063019810169678
17.86841631644005,0.18798992180604188
17.87641829419036,0.19144743205531023
17.88442027194067,0.17066348632439682
17.892422249690977,0.176643989042725
17.900424227441285,0.15880133502322236
17.908426205191596,0.1678588262308345
17.916428182941903,0.15298191326126762
17.924430160692214,0.16465240290897426
17.932432138442522,0.15186592978927016
17.94043411619283,0.16496894376817645
17.94843609394314,0.15291376450022345
17.956438071693448,0.16604754639627856
17.96444004944376,0.15341399089574204
17.972442027194067,0.16548293492531624
17.980444004944378,0.15148904114133901
17.988445982694685,0.16209362499532054
17.996447960444993,0.14675511308953648
18.004449938195304,0.15632034501720485
18.01245191594561,0.14042790518894654
18.020453893695922,0.1500326251879517
18.02845587144623,0.13484901131784405
18.03645784919654,0.14581789748425836
18.04445982694685,0.1326010670451167
18.052461804697156,0.14600119219047988
18.060463782447467,0.13551903837596382
18.068465760197775,0.1517361780938745
18.076467737948086,0.14394270135052017
18.084469715698393,0.16248719345089788
18.0924716934487,0.15647675846397088
18.100473671199012,0.1760920365143344
18.10847564894932,0.17035460951024
18.11647762669963,0.18939865830897937
18.124479604449938,0.1822957465199081
18.13248158220025,0.19927119873474142
18.140483559950557,0.1895746110076236
18.148485537700864,0.20362941780814994
18.156487515451175,0.1909398799918631
18.164489493201483,0.2021665365615832
18.172491470951794,0.18706612143681778
18.1804934487021,0.1964922876547947
18.18849542645241,0.18037201186752747
18.19649740420272,0.18963789112781138
18.204499381953028,0.17425070903940917
18.21250135970334,0.18507439004387757
18.220503337453646,0.17195743142148068
18.228505315203957,0.18556260587451465
18.236507292954265,0.17551884563823894
18.244509270704572,0.1922146312234249
18.252511248454883,0.18502698774395485
18.26051322620519,0.20408121914648086
18.268515203955502,0.198556581224045
18.27651718170581,0.2184077195673033
18.28451915945612,0.21273970351515703
18.29252113720643,0.23148066144036397
18.300523114956736,0.223814513500838
18.308525092707047,0.23979184471052759
18.316527070457354,0.22880832044407265
18.324529048207665,0.24114261065763432
18.332531025957973,0.2264722101625422
18.34053300370828,0.2353326026017241
18.34853498145859,0.21766874616734222
18.3565369592089,0.22421679898177935
18.36453893695921,0.205096635743061
18.372540914709518,0.21112392013553638
18.38054289245983,0.1924542837933038
18.388544870210136,0.199837154981153
18.396546847960444,0.1833239115272416
18.404548825710755,0.19347448874784753
18.412550803461063,0.18013942128521335
18.420552781211374,0.19362608426030817
18.42855475896168,0.18355898699504647
18.436556736711992,0.2000060800392395
18.4445587144623,0.1924149553661538
18.452560692212607,0.21069326362185606
18.46056266996292,0.2042129753902673
18.468564647713226,0.22283482824961715
18.476566625463537,0.2159704071045892
18.484568603213845,0.23354006850381784
18.492570580964152,0.22508406378653031
18.500572558714463,0.24064663059543426
18.50857453646477,0.22993207236885127
18.51657651421508,0.24311338604285967
18.52457849196539,0.23003532656414208
18.5325804697157,0.2409519029808215
18.540582447466008,0.22578369059370884
18.548584425216315,0.23479252860018013
18.556586402966627,0.21790271853249601
18.564588380716934,0.2253217738748212
18.572590358467245,0.2069337398941038
18.580592336217553,0.2128716474610126
18.58859431396786,0.1929864915358237
18.59659629171817,0.19737129117907795
18.60459826946848,0.17590301145571458
18.61260024721879,0.17871198912753475
18.620602224969097,0.15578865894627664
18.62860420271941,0.15738795706933686
18.636606180469716,0.13369028593882645
18.644608158220024,0.1351300984228845
18.652610135970335,0.11210225403268925
18.660612113720642,0.11520775102739236
18.668614091470953,0.09500215676378379
18.67661606922126,0.10215830370576962
18.684618046971572,0.08726105693960771
18.69262002472188,0.10089443424416385
18.700622002472187,0.09349398273140834
18.708623980222498,0.11537149751402699
18.716625957972806,0.11664013028256674
18.724627935723117,0.14719145224673316
18.732629913473424,0.15670747635333496
18.74063189122373,0.19460134256571074
18.748633868974043,0.21012464199224706
18.75663584672435,0.2522752961779822
18.76463782447466,0.26999953627333756
18.77263980222497,0.3120609027366985
18.78064177997528,0.32732676146086537
18.788643757725588,0.3645838468881068
18.796645735475895,0.3728923872976812
18.804647713226206,0.4013291031716941
18.812649690976514,0.39939022181620265
18.820651668726825,0.4166439775473863
18.828653646477132,0.4031678212847579
18.83665562422744,0.4090991151208498
18.84465760197775,0.3851006142541232
18.85265957972806,0.3818082752373812
18.86066155747837,0.3503299667625275
18.868663535228677,0.34159998360016686
18.876665512978988,0.3069255549275997
18.884667490729296,0.29726543930604304
18.892669468479603,0.26384412552854064
18.900671446229914,0.25737432802769705
18.908673423980222,0.22875814082602097
18.916675401730533,0.22826959967980742
18.92467737948084,0.206355678917176
18.93267935723115,0.21278652549888447
18.94068133498146,0.19755913665904168
18.948683312731767,0.2100121517786593
18.956685290482078,0.19982452992245728
18.964687268232385,0.21608231698029917
18.972689245982696,0.20835697484702884
18.980691223733004,0.2257062743635477
18.98869320148331,0.21781444974833894
18.996695179233622,0.23390983502601312
19.00469715698393,0.2239523329104167
19.01269913473424,0.23745624702747373
19.02070111248455,0.2247183661954895
19.02870309023486,0.2355435380335927
19.036705067985167,0.2205162461318405
19.044707045735475,0.22963570966235475
19.052709023485786,0.21364194993735028
19.060711001236093,0.22257353312594183
19.068712978986404,0.20716316431137122
19.076714956736712,0.2173326513079304
19.084716934487023,0.20367188132708935
19.09271891223733,0.21588193344327514
19.100720889987638,0.2043455618145773
19.10872286773795,0.21852214263485398
19.116724845488257,0.20860972521360233
19.124726823238568,0.2238873716143717
19.132728800988875,0.21446138675409088
19.140730778739183,0.22954450852459796
19.148732756489494,0.2192747082427854
19.1567347342398,0.232918702633187
19.164736711990113,0.22075209647526856
19.17273868974042,0.23217734985804672
19.18074066749073,0.21765867329709176
19.18874264524104,0.2267507146355378
19.196744622991346,0.2100886138534701
19.204746600741657,0.2173308384485988
19.212748578491965,0.19921142262626998
19.220750556242276,0.20540579894497737
19.228752533992584,0.18665593002716843
19.23675451174289,0.19256957231120722
19.244756489493202,0.1738283425775851
19.25275846724351,0.17992799988492567
19.26076044499382,0.161474737705754
19.26876242274413,0.1678678965196919
19.27676440049444,0.14968279804605783
19.284766378244747,0.1562902412878506
19.292768355995054,0.13831778006840062
19.300770333745366,0.14519526877357503
19.308772311495673,0.1276832868396702
19.316774289245984,0.13533308212856288
19.32477626699629,0.11907237441107911
19.332778244746603,0.12857195380354397
19.34078022249691,0.11488507650415522
19.348782200247218,0.1277205101890614
19.35678417799753,0.11814012826258652
19.364786155747836,0.13574664751078525
19.372788133498148,0.13145170122988253
19.380790111248455,0.1545926180265125
19.388792088998763,0.1557871097547446
19.396794066749074,0.18399456322131635
19.40479604449938,0.18947161782689637
19.412798022249692,0.22078862219984574
19.4208,0.22789289537386598
19.42880197775031,0.2590814209907899
19.43680395550062,0.26416768272683466
19.444805933250926,0.29140037598846075
19.452807911001237,0.29071902855074316
19.460809888751545,0.3105994369110487
19.468811866501856,0.30137670122802185
19.476813844252163,0.31199470477995955
19.484815822002474,0.29337543690946116
19.492817799752782,0.2950538539248132
19.50081977750309,0.2685799687493036
19.5088217552534,0.26403111734593676
19.516823733003708,0.23344626458518722
19.52482571075402,0.22722194165352413
19.532827688504327,0.19759256645923218
19.540829666254634,0.19492957035407835
19.548831644004945,0.1712925358867002
19.556833621755253,0.1766587981309051
19.564835599505564,0.1625739834838852
19.57283757725587,0.17833873949795687
19.580839555006182,0.17478214299108172
19.58884153275649,0.2004229213750278
19.596843510506798,0.20537639089471002
19.60484548825711,0.23749218083729431
19.612847466007416,0.24638866472942225
19.620849443757727,0.2795524924746416
19.628851421508035,0.28647911872597553
19.636853399258342,0.3147067093821397
19.644855377008653,0.314032321240118
19.65285735475896,0.332448171985834
19.660859332509272,0.3204033397417365
19.66886131025958,0.32661561844599685
19.67686328800989,0.3023583727123971
19.684865265760198,0.2971347469041139
19.692867243510506,0.2629855602755065
19.700869221260817,0.25003029201438287
19.708871199011124,0.21080953433170752
19.716873176761435,0.19571336511377263
19.724875154511743,0.15738531113495188
19.732877132262054,0.14606832061430963
19.74087911001236,0.11410218765818045
19.74888108776267,0.11121735397058799
19.75688306551298,0.08915280752762747
19.764885043263288,0.0969184927372686
19.7728870210136,0.08554754359553644
19.780888998763906,0.10333234357361636
19.788890976514214,0.10070794846905781
19.796892954264525,0.1254499838193722
19.804894932014832,0.1276707967561615
19.812896909765144,0.15495484858880842
19.82089888751545,0.15744038363298116
19.828900865265762,0.18286366968615406
19.83690284301607,0.1816993891438557
19.844904820766377,0.20209009617409127
19.85290679851669,0.19502762994940878
19.860908776266996,0.2091564745890226
19.868910754017307,0.19599290892715687
19.876912731767614,0.20460618517538035
19.884914709517926,0.18688683746354104
19.892916687268233,0.19212251805826713
19.90091866501854,0.17233693399854377
19.90892064276885,0.17678353819689294
19.91692262051916,0.1573787545205845
19.92492459826947,0.16313465017196957
19.932926576019778,0.145704057662634
19.940928553770085,0.1537639609664019
19.948930531520396,0.13867830982851048
19.956932509270704,0.14883075291206738
19.964934487021015,0.13539778012075973
19.972936464771323,0.1466174349807539
19.980938442521634,0.1336556683166282
19.98894042027194,0.14479103358407455
19.99694239802225,0.1313542008736488
20.00494437577256,0.1418096274411859
20.012946353522867,0.1277529490114228
20.02094833127318,0.13787867823723957
20.028950309023486,0.12403074732925737
20.036952286773793,0.13505732371705823
20.044954264524105,0.122922138112377
20.052956242274412,0.1364590153011862
20.060958220024723,0.12756118078317227
20.06896019777503,0.14485480634069287
20.076962175525342,0.13998668614610688
20.08496415327565,0.16123547679368425
20.092966131025957,0.15991373105352022
20.100968108776268,0.18392771958749543
20.108970086526575,0.1842993304526731
20.116972064276887,0.2086731518115079
20.124974042027194,0.20795092641788923
20.132976019777505,0.22973232965954266
20.140977997527813,0.22504412913399818
20.14897997527812,0.24169324783376667
20.15698195302843,0.23106837159328047
20.16498393077874,0.24138335874466457
20.17298590852905,0.2245324759272885
20.180987886279357,0.22920935703688178
20.188989864029665,0.2078072911990771
20.196991841779976,0.20941140403865027
20.204993819530284,0.18674903592798858
20.212995797280595,0.18906639585774906
20.220997775030902,0.16914642076477535
20.228999752781213,0.17609120483576746
20.23700173053152,0.1624316012760522
20.24500370828183,0.17683982054236236
20.25300568603214,0.1713540711827426
20.261007663782447,0.19404078293929672
20.269009641532758,0.19634909115946317
20.277011619283066,0.2257308221244197
20.285013597033377,0.23312643937594163
20.293015574783684,0.26553699199932645
20.30101755253399,0.2736296175408648
20.309019530284303,0.304243664581311
20.31702150803461,0.308094361250032
20.32502348578492,0.3321890904771892
20.33302546353523,0.3276053071248817
20.341027441285537,0.34179426395134804
20.349029419035848,0.3264142299034505
20.357031396786155,0.3295070913776116
20.365033374536466,0.30337845438075867
20.373035352286774,0.2966445505530567
20.381037330037085,0.26216325347781255
20.389039307787392,0.2489605800558369
20.3970412855377,0.21022697629677192
20.40504326328801,0.19514071721720355
20.41304524103832,0.15694896347244938
20.42104721878863,0.1447073645303803
20.429049196538937,0.1114642437481152
20.437051174289245,0.10593169854042406
20.445053152039556,0.08078490019024098
20.453055129789863,0.08427194616973736
20.461057107540174,0.0686313493272873
20.469059085290482,0.08163894335183411
20.477061063040793,0.07513841425225516
20.4850630407911,0.09651673338590513
20.493065018541408,0.0973376331748624
20.50106699629172,0.12473424181098171
20.509068974042027,0.13013479662915622
20.517070951792338,0.1605625672082636
20.525072929542645,0.16744616700793213
20.533074907292956,0.1978210724347817
20.541076885043264,0.20322167884677136
20.54907886279357,0.2307834764045216
20.557080840543883,0.23221816427378061
20.56508281829419,0.254818688471755
20.5730847960445,0.25052055729458944
20.58108677379481,0.26681235513977464
20.589088751545116,0.2558854643046435
20.597090729295427,0.2654506367615428
20.605092707045735,0.24797558543207307
20.613094684796046,0.2514052251908267
20.621096662546353,0.2284839037686072
20.629098640296665,0.227374991821987
20.637100618046972,0.20106374206613192
20.64510259579728,0.19787253449364073
20.65310457354759,0.17094246539342
20.661106551297898,0.16864405232505975
20.66910852904821,0.14414024789330723
20.677110506798517,0.14569765646863259
20.685112484548824,0.12633900832700373
20.693114462299135,0.13406476474382625
20.701116440049443,0.1216067898387457
20.709118417799754,0.13657227641824463
20.71712039555006,0.1313103702520553
20.725122373300373,0.15298812965805253
20.73312435105068,0.1535774134984098
20.741126328800988,0.17986616815982245
20.7491283065513,0.183564951624574
20.757130284301606,0.21124802632790968
20.765132262051917,0.21456996137217915
20.773134239802225,0.24012278798348938
20.781136217552536,0.2397464027973451
20.789138195302844,0.26028352660894544
20.79714017305315,0.2539658398572727
20.805142150803462,0.2680497167197549
20.81314412855377,0.2552643037722819
20.82114610630408,0.26331808330773043
20.82914808405439,0.24540447070518087
20.837150061804696,0.24958016975020655
20.845152039555007,0.22933540719247045
20.853154017305314,0.23285623098262823
20.861155995055626,0.21367634092185311
20.869157972805933,0.2198430819136281
20.877159950556244,0.20467247120242163
20.88516192830655,0.21583985572750738
20.89316390605686,0.20625735272798243
20.90116588380717,0.2231043048926451
20.909167861557478,0.21883751638903393
20.91716983930779,0.24016553965823606
20.925171817058096,0.23918966350467993
20.933173794808408,0.26231339145303373
20.941175772558715,0.26150032046311145
20.949177750309023,0.28310025480400536
20.957179728059334,0.27920297831668495
20.96518170580964,0.2963587356557047
20.973183683559952,0.28700694580604647
20.98118566131026,0.2980725893973645
20.989187639060567,0.28245613999461827
20.99718961681088,0.2874974048996648
21.005191594561186,0.26652483793835646
21.013193572311497,0.2671910817748567
21.021195550061805,0.24309219361816173
21.029197527812116,0.24199006361505762
21.037199505562423,0.21752058754440648
21.04520148331273,0.21732346252040993
21.053203461063042,0.19486002520326695
21.06120543881335,0.1974688457438982
21.06920741656366,0.17830832312156872
21.077209394313968,0.18434787782606132
21.085211372064276,0.16843960396959498
21.093213349814587,0.17724292623246
21.101215327564894,0.16341765453392054
21.109217305315205,0.17346912662056976
21.117219283065513,0.16004628890353892
21.125221260815824,0.16968856072071523
21.13322323856613,0.15521024214348406
21.14122521631644,0.16333167680926605
21.14922719406675,0.1471361346027151
21.157229171817058,0.15357571653022278
21.16523114956737,0.1359969615565043
21.173233127317676,0.14152327982706303
21.181235105067987,0.12365699545997878
21.189237082818295,0.12955054867848423
21.197239060568602,0.11270109235516347
21.205241038318913,0.12012822496735394
21.21324301606922,0.10517933004024463
21.221244993819532,0.11463000020791422
21.22924697156984,0.10161316297457658
21.237248949320147,0.11265015234735463
21.245250927070458,0.10070618696016523
21.253252904820766,0.11214831958759351
21.261254882571077,0.09991801214175573
21.269256860321384,0.11040146296438645
21.277258838071695,0.09670147399660212
21.285260815822003,0.1054001893023151
21.29326279357231,0.08991067413830882
21.30126477132262,0.09711427968825102
21.30926674907293,0.08077837054522641
21.31726872682324,0.08805989287025447
21.325270704573548,0.07298756232854978
21.33327268232386,0.0828365157468898
21.341274660074166,0.07168674606425751
21.349276637824474,0.08668606986658953
21.357278615574785,0.0817066011648961
21.365280593325092,0.10351990208339837
21.373282571075404,0.1055758156808515
21.38128454882571,0.13411173013188363
21.38928652657602,0.1420717331296395
21.39728850432633,0.17516160849192344
21.405290482076637,0.18591284869695296
21.41329245982695,0.21967961802242914
21.421294437577256,0.22883617240363693
21.429296415327567,0.25869688391894685
21.437298393077874,0.261822723978681
21.445300370828182,0.283836028324587
21.453302348578493,0.27780669547560777
21.4613043263288,0.2899333403437584
21.46930630407911,0.2739849181609917
21.47730828182942,0.2768297310489661
21.485310259579727,0.2529219902960025
21.493312237330038,0.24967679567401418
21.501314215080345,0.22200924292445787
21.509316192830656,0.21757147124970155
21.517318170580964,0.19136820270845512
21.525320148331275,0.19088509497251976
21.533322126081583,0.1708134100903811
21.54132410383189,0.17810257011024103
21.5493260815822,0.16682477794788347
21.55732805933251,0.18317736603357848
21.56533003708282,0.1805060215037932
21.573332014833127,0.204266489657229
21.58133399258344,0.20720650936602283
21.589335970333746,0.2342769428886278
21.597337948084053,0.23795374925368243
21.605339925834365,0.2630721545237333
21.613341903584672,0.26225725932879135
21.621343881334983,0.28064695201066836
21.62934585908529,0.2713973267193183
21.6373478368356,0.280263320791436
21.64534981458591,0.2611538063410243
21.653351792336217,0.26055228008962267
21.661353770086528,0.23311334636223288
21.669355747836835,0.22592471059775868
21.677357725587147,0.1941561460854738
21.685359703337454,0.1851822318351554
21.69336168108776,0.15431037064280395
21.701363658838073,0.14879519814025138
21.70936563658838,0.12367878921607316
21.71736761433869,0.1257288297521085
21.725369592089,0.10941988193215244
21.73337156983931,0.12081815949778041
21.741373547589617,0.11371934748348615
21.749375525339925,0.1334865296856941
21.757377503090236,0.1333422777224261
21.765379480840544,0.15814854744873805
21.773381458590855,0.16083456334295715
21.781383436341162,0.1860941919200811
21.78938541409147,0.18692176979060127
21.79738739184178,0.20819770924900557
21.80538936959209,0.20330455873792255
21.8133913473424,0.2175764742733996
21.821393325092707,0.20497684761448742
21.829395302843018,0.2113995832779022
21.837397280593326,0.19140402252261476
21.845399258343633,0.1913711350830727
21.853401236093944,0.1663060710682322
21.861403213844252,0.16286517774242865
21.869405191594563,0.1362464696679087
21.87740716934487,0.1331097559963406
21.885409147095178,0.10857771307913244
21.89341112484549,0.10906980419591975
21.901413102595797,0.08943137659976808
21.909415080346108,0.09569379974733251
21.917417058096415,0.08233866211373804
21.925419035846726,0.09498517952410065
21.933421013597034,0.0877852668380381
21.94142299134734,0.10602909284468932
21.949424969097652,0.10365863817873337
21.95742694684796,0.12577677916880467
21.96542892459827,0.1262644788719493
21.97343090234858,0.15017940041707303
21.98143288009889,0.15146531581424744
21.989434857849197,0.17523198057329842
21.997436835599505,0.17555262697789212
22.005438813349816,0.19762480307767769
22.013440791100123,0.19565957358540664
22.021442768850434,0.21492973072134403
22.029444746600742,0.2097592771888537
22.03744672435105,0.2254681347960506
22.04544870210136,0.21647074077439415
22.053450679851668,0.22812423199014858
22.06145265760198,0.21494074855252437
22.069454635352287,0.22234029781235723
22.077456613102598,0.20497476204423287
22.085458590852905,0.2083800362192478
22.093460568603213,0.18740391834254955
22.101462546353524,0.18774781746618013
22.10946452410383,0.16448848641063324
22.117466501854143,0.16349979836567466
22.12546847960445,0.1400609760313162
22.13347045735476,0.14015392800519816
22.14147243510507,0.1191574610137919
22.149474412855376,0.1230236756858821
22.157476390605687,0.10706601306995424
22.165478368355995,0.11702605263916091
22.173480346106306,0.10796970437135332
22.181482323856613,0.1252600869301194
22.18948430160692,0.12357782717957702
22.197486279357232,0.1478143621536485
22.20548825710754,0.1522279676562728
22.21349023485785,0.1812647649464226
22.221492212608158,0.18885286617022273
22.22949419035847,0.21914774915405796
22.237496168108777,0.22595584320876777
22.245498145859084,0.25339043999514144
22.253500123609395,0.2554070989938133
22.261502101359703,0.2763497406415954
22.269504079110014,0.2705768111082381
22.27750605686032,0.2828772445184197
22.28550803461063,0.2681699265500391
22.29351001236094,0.2717761352375933
22.301511990111248,0.24918453792213066
22.30951396786156,0.2461783858353279
22.317515945611866,0.21867091737889174
22.325517923362177,0.21269810424004537
22.333519901112485,0.1843406440671062
22.341521878862793,0.17960216499656817
22.349523856613104,0.15444009310809642
22.35752583436341,0.1545517845194947
22.365527812113722,0.13553534774592635
22.37352978986403,0.14260131495294728
22.38153176761434,0.13087642092295665
22.38953374536465,0.14504784987504243
22.397535723114956,0.13981083514395312
22.405537700865267,0.1594398930230326
22.413539678615575,0.15836909658328532
22.421541656365886,0.18067435569359333
22.429543634116193,0.1807674007893811
22.4375456118665,0.2027685316683168
22.44554758961681,0.20129423556037493
22.45354956736712,0.22070227066330364
22.46155154511743,0.21595854172682433
22.469553522867738,0.23174475805046799
22.47755550061805,0.2234004180077169
22.485557478368356,0.23589439875951668
22.493559456118664,0.22484887370363946
22.501561433868975,0.23538602825601018
22.509563411619283,0.22324856458652254
22.517565389369594,0.23353790456081572
22.5255673671199,0.22194803834587162
22.53356934487021,0.2334105172941873
22.54157132262052,0.22345438033979953
22.549573300370827,0.2367667326725952
22.55757527812114,0.22868318946080968
22.565577255871446,0.24366361297847314
22.573579233621757,0.2369082801238521
22.581581211372065,0.2527400130258211
22.589583189122372,0.24633462287307328
22.597585166872683,0.26199631132145096
22.60558714462299,0.25498924584732197
22.613589122373302,0.26969417261026235
22.62159110012361,0.26153161729656343
22.62959307787392,0.274993432399549
22.637595055624228,0.2656553953901715
22.645597033374536,0.2780854062802213
22.653599011124847,0.26795111353712425
22.661600988875154,0.27981338593206123
22.669602966625465,0.2693398371406647
22.677604944375773,0.28099523811011545
22.68560692212608,0.27037234718668174
22.69360889987639,0.2817889193429715
22.7016108776267,0.2707429087381287
22.70961285537701,0.2814195255529597
22.717614833127318,0.26927045591170595
22.72561681087763,0.2784265630610704
22.733618788627936,0.26439330730469224
22.741620766378244,0.2713584136651689
22.749622744128555,0.2549912587595318
22.757624721878862,0.25963276444704436
22.765626699629173,0.24118705911320534
22.77362867737948,0.24418399592837875
22.781630655129792,0.2247568567194878
22.7896326328801,0.22757516817200768
22.797634610630407,0.2089105993812016
22.805636588380718,0.21344642125439
22.813638566131026,0.19744184117299948
22.821640543881337,0.2054311475084243
22.829642521631644,0.19350132706958778
22.837644499381952,0.20589594954469423
22.845646477132263,0.1984200803138875
22.85364845488257,0.21496030624661697
22.86165043263288,0.2110247750645946
22.86965241038319,0.23018260414821307
22.8776543881335,0.2277374795071914
22.885656365883808,0.24707992995131262
22.893658343634115,0.24348371300349667
22.901660321384426,0.260356665710742
22.909662299134734,0.25314351461716184
22.917664276885045,0.26545816033139225
22.925666254635352,0.25307672387529423
22.93366823238566,0.2599373445996065
22.94167021013597,0.2422132676239814
22.94967218788628,0.244174465322339
22.95767416563659,0.22234028610150067
22.965676143386897,0.22120752183101172
22.97367812113721,0.19749209091821399
22.981680098887516,0.19573685001543772
22.989682076637823,0.1726583754604705
22.997684054388134,0.1726517179182268
23.005686032138442,0.15225919322255976
23.013688009888753,0.1555870038659881
23.02168998763906,0.13890776995108922
23.02969196538937,0.1459963520606262
23.03769394313968,0.13286856812351777
23.045695920889987,0.14303345097856182
23.053697898640298,0.13236062456616446
23.061699876390605,0.1442373237616169
23.069701854140916,0.13454988957932568
23.077703831891224,0.1467294083844833
23.08570580964153,0.13683125806111388
23.093707787391843,0.14845476556377737
23.10170976514215,0.13790917416235768
23.10971174289246,0.14899961321077243
23.11771372064277,0.1382765289159681
23.12571569839308,0.14968987287100666
23.133717676143387,0.1399286611649463
23.141719653893695,0.15295400178313767
23.149721631644006,0.14544241675157282
23.157723609394314,0.1612128995135029
23.165725587144625,0.15678937723722025
23.173727564894932,0.17573575571142955
23.181729542645243,0.1743488210109514
23.18973152039555,0.19590872056937444
23.19773349814586,0.1965053016503065
23.20573547589617,0.21920219955018674
23.213737453646477,0.21999025668171884
23.221739431396788,0.2418548716914894
23.229741409147096,0.24084328253226114
23.237743386897403,0.26002029204608124
23.245745364647714,0.25563441263911785
23.25374734239802,0.27094822092036897
23.261749320148333,0.2624922994222616
23.26975129789864,0.27376282581541955
23.27775327564895,0.26156038709661206
23.28575525339926,0.26955654301636733
23.293757231149566,0.25472381920743375
23.301759208899878,0.2607814143632472
23.309761186650185,0.244729479185888
23.317763164400496,0.2501886458399302
23.325765142150804,0.23405346941824026
23.33376711990111,0.23973931517571262
23.341769097651422,0.22396588435714476
23.34977107540173,0.22991861064425806
23.35777305315204,0.21416499004770004
23.36577503090235,0.21972841517208425
23.37377700865266,0.20313067586040956
23.381778986402967,0.20736759101556002
23.389780964153275,0.18906409563577764
23.397782941903586,0.1913363857619833
23.405784919653893,0.1710441317444224
23.413786897404204,0.17152495006769583
23.421788875154512,0.1499322679172338
23.429790852904823,0.14983445264315723
23.43779283065513,0.12863529490559877
23.445794808405438,0.13003970996909056
23.45379678615575,0.11156362793337914
23.461798763906057,0.1168773194041596
23.469800741656368,0.10341906976167971
23.477802719406675,0.11463250544928498
23.485804697156983,0.10770097659310346
23.493806674907294,0.12569478734851308
23.5018086526576,0.12543974821355736
23.509810630407912,0.14958407745580868
23.51781260815822,0.15460633089007458
23.52581458590853,0.1828021297106769
23.53381656365884,0.19042657877735517
23.541818541409146,0.21959131542306148
23.549820519159457,0.22652816835318698
23.557822496909765,0.25338071125854117
23.565824474660076,0.2565721935879781
23.573826452410383,0.27847495657068666
23.581828430160694,0.2758677610736993
23.589830407911002,0.29147120169598434
23.59783238566131,0.2824865309667297
23.60583436341162,0.29199370327019303
23.613836341161928,0.2775730035520956
23.62183831891224,0.28257142551445774
23.629840296662547,0.2648165259243123
23.637842274412854,0.26776329124347564
23.645844252163165,0.2493138906216659
23.653846229913473,0.25285893798538334
23.661848207663784,0.23621601006532866
23.66985018541409,0.24257604166965815
23.677852163164403,0.229568355979927
23.68585414091471,0.2401164603341249
23.693856118665018,0.23163021802757972
23.70185809641533,0.24676829781549364
23.709860074165636,0.24275191156782114
23.717862051915947,0.26202637896461783
23.725864029666255,0.2616879025009492
23.733866007416562,0.2840358175895657
23.741867985166873,0.28610503031013007
23.74986996291718,0.3101034884527383
23.757871940667492,0.3130472449604796
23.7658739184178,0.337082816836137
23.77387589616811,0.33922709294503156
23.78187787391842,0.3615789577876387
23.789879851668726,0.36116981447423746
23.797881829419037,0.38007077510224
23.805883807169344,0.37535957800570446
23.813885784919655,0.3891276813066866
23.821887762669963,0.37856558422869
23.829889740420274,0.3858689854791426
23.83789171817058,0.36843851086184326
23.84589369592089,0.36867796366377986
23.8538956736712,0.34429894771283137
23.861897651421508,0.3380000721991133
23.86989962917182,0.3078647515437936
23.877901606922126,0.2969104122465449
23.885903584672434,0.2635705209630666
23.893905562422745,0.251108128597584
23.901907540173053,0.21818063443480212
23.909909517923364,0.20812103689496858
23.91791149567367,0.1795937521356113
23.925913473423982,0.17575660411603009
23.93391545117429,0.15502455619793332
23.941917428924597,0.16013197401935528
23.94991940667491,0.14902481041736299
23.957921384425216,0.16384299367246385
23.965923362175527,0.1619583019892575
23.973925339925835,0.18488988021558658
23.981927317676146,0.18949505226024577
23.989929295426453,0.21681857191189455
23.99793127317676,0.2234297934017025
24.00593325092707,0.25019216777637543
24.01393522867738,0.2537270646711634
24.02193720642769,0.27507907262136916
24.029939184177998,0.2712790388931665
24.037941161928305,0.28387704662356783
24.045943139678617,0.2705780712516666
24.053945117428924,0.27361995821639445
24.061947095179235,0.25146485471949037
24.069949072929543,0.2470128921560626
24.077951050679854,0.21934851861149138
24.08595302843016,0.21179786361917616
24.09395500618047,0.18374624264386252
24.10195698393078,0.1785627504499448
24.109958961681087,0.1555178460573424
24.1179609394314,0.1576073050480472
24.125962917181706,0.14360252104575408
24.133964894932014,0.15580442561988125
24.141966872682325,0.15225241329574474
24.149968850432632,0.17442739678261995
24.157970828182943,0.17963000505609872
24.16597280593325,0.20863410623854015
24.173974783683562,0.2182259764670707
24.18197676143387,0.2487911308273618
24.189978739184177,0.25698966796568706
24.197980716934488,0.2832461413509297
24.205982694684796,0.28452765598575447
24.213984672435107,0.30170308847599986
24.221986650185414,0.2923925691652007
24.229988627935725,0.298169716095129
24.237990605686033,0.2774631534141294
24.24599258343634,0.2725910787533964
24.25399456118665,0.24271342404890112
24.26199653893696,0.23070681694004053
24.26999851668727,0.19618393861507333
24.278000494437578,0.18223260724088192
24.286002472187885,0.14853098721129163
24.294004449938196,0.13798209612299572
24.302006427688504,0.10995600003643667
24.310008405438815,0.10684831824612104
24.318010383189122,0.08747293111565838
24.326012360939433,0.09356131751033264
24.33401433868974,0.08331451536745747
24.34201631644005,0.09784362836306043
24.35001829419036,0.0948730174731589
24.358020271940667,0.11510673595632497
24.366022249690978,0.11606184074815595
24.374024227441286,0.13833597619095458
24.382026205191597,0.13954442217048194
24.390028182941904,0.16046337055796742
24.398030160692212,0.15904815043440657
24.406032138442523,0.1764345789034837
24.41403411619283,0.1710268167496457
24.42203609394314,0.18435227182792363
24.43003807169345,0.17522146345673104
24.438040049443757,0.1854454262689249
24.446042027194068,0.17408176636112763
24.454044004944375,0.1830326433239743
24.462045982694686,0.17139691837154072
24.470047960444994,0.18096870893958086
24.478049938195305,0.17071361824214515
24.486051915945612,0.18218246171291289
24.49405389369592,0.17412134290325534
24.50205587144623,0.18780500927863197
24.51005784919654,0.18177953978404637
24.51805982694685,0.19710904681930738
24.526061804697157,0.19224030731146052
24.534063782447465,0.20814929659487794
24.542065760197776,0.20331270784324992
24.550067737948083,0.2187396071594682
24.558069715698394,0.2130367873131945
24.566071693448702,0.2273157213462319
24.574073671199013,0.2203458642688625
24.58207564894932,0.23333570833906248
24.590077626699628,0.22517726499473356
24.59807960444994,0.23710864350519187
24.606081582200247,0.22806012950272914
24.614083559950558,0.2392106940762672
24.622085537700865,0.22944833948252177
24.630087515451176,0.23983223842017895
24.638089493201484,0.2291764275788382
24.64609147095179,0.23842320075576903
24.654093448702103,0.2263513262450927
24.66209542645241,0.2338574520869569
24.67009740420272,0.21978117056446064
24.67809938195303,0.2250833485950158
24.686101359703336,0.20877442173635485
24.694103337453647,0.21197524696632689
24.702105315203955,0.1939347684131202
24.710107292954266,0.19596196977030222
24.718109270704574,0.17752505509957153
24.726111248454885,0.18005158614781006
24.734113226205192,0.16311153520739952
24.7421152039555,0.16809361339051893
24.75011718170581,0.15448506374917795
24.75811915945612,0.16344117813057765
24.76612113720643,0.1541811620008383
24.774123114956737,0.1674709847553161
24.782125092707044,0.16215398089326527
24.790127070457356,0.17856256410031213
24.798129048207663,0.17519390676061355
24.806131025957974,0.19205463625448096
24.81413300370828,0.18747836912577784
24.822134981458593,0.20139297847835222
24.8301369592089,0.19226258977891272
24.838138936959208,0.2002545537006096
24.84614091470952,0.1842790139786973
24.854142892459826,0.1850272102836959
24.862144870210138,0.16208090174712037
24.870146847960445,0.15679778567926456
24.878148825710756,0.12947206701349906
24.886150803461064,0.12205605543834429
24.89415278121137,0.0953697321930248
24.902154758961682,0.09166612973671379
24.91015673671199,0.0719067372454914
24.9181587144623,0.0781960903861531
24.92616069221261,0.07115493956135902
24.934162669962916,0.09226044029690848
24.942164647713227,0.10135477621787559
24.950166625463535,0.13892725825844576
24.958168603213846,0.1637899762949506
24.966170580964153,0.21532628778278098
24.974172558714464,0.2513483391997322
24.982174536464772,0.31031602626368315
24.99017651421508,0.3493687238261772
24.99817849196539,0.40649596709701524
25.006180469715698,0.4387143905129007
25.01418244746601,0.48415327635666944
25.022184425216317,0.5003343297801416
25.030186402966628,0.5261277360562415
25.038188380716935,0.5200914312663371
25.046190358467243,0.5222590365792207
25.054192336217554,0.4925073194042515
25.06219431396786,0.4721548305892335
25.070196291718172,0.4223477998920405
25.07819826946848,0.385472290275274
25.086200247218787,0.3235733429442568
25.0942022249691,0.2796067235851694
25.102204202719406,0.2159262876879229
25.110206180469717,0.17541690866413714
25.118208158220025,0.1200947392337107
25.126210135970336,0.092166109423964
25.134212113720643,0.052781862780193686
25.14221409147095,0.043057166745704485
25.150216069221262,0.02300574033333003
25.15821804697157,0.03253590083511222
25.16622002472188,0.030568190814447598
